URL	chrom://pc-3vxg514/ChromeleonLocal/Data/2024/2024_w23.seq/356.smp/UV_VIS_2.channel/UV_VIS_2.chm
Channel	UV_VIS_2

Injection Information:
Data Vault	ChromeleonLocal
Sequence	2024_w23
Name	ODIBO_click_30min
Number	69
Position	GE5
Comment	
Processing Method	General_ILK
Instrument Method	5-100pct_positive_3min
Type	Calibration Standard
Status	Finished
Inject Time	6/5/2024 2:35:42 PM +02:00
Volume (µl)	1.5000
Dilution Factor	1.0000
Weight	1.0000

Chromatogram Data Information:
Time Min. (min)	0.000000
Time Max. (min)	3.100000
Data Points	931
Detector	UV
Generating Data System	Chromeleon 7.3.2.11814
Exporting Data System	Chromeleon 7.3.2.0
Operator	Instrument Controller
Signal Quantity	Absorbance
Signal Unit	mAU
Signal Min.	-0.374226
Signal Max.	465.567680
Channel	UV_VIS_2
Driver Name	DAD3000.dll
Channel Type	Evaluation
Min. Step (s)	0.2
Max. Step (s)	0.2
Average Step (s)	0.2

Signal Parameter Information:
Signal Info	WVL:254 nm

Chromatogram Data:
Time (min)	Step (s)	Value (mAU)
0.000000	n.a.	0.000000
0.003333	0.2	0.000181
0.006667	0.2	0.000865
0.010000	0.2	0.001420
0.013333	0.2	-0.000131
0.016667	0.2	-0.005029
0.020000	0.2	-0.012224
0.023333	0.2	-0.019539
0.026667	0.2	-0.025244
0.030000	0.2	-0.028447
0.033333	0.2	-0.029066
0.036667	0.2	-0.027623
0.040000	0.2	-0.024961
0.043333	0.2	-0.022181
0.046667	0.2	-0.020382
0.050000	0.2	-0.020240
0.053333	0.2	-0.021882
0.056667	0.2	-0.024903
0.060000	0.2	-0.028618
0.063333	0.2	-0.032521
0.066667	0.2	-0.036323
0.070000	0.2	-0.039683
0.073333	0.2	-0.042323
0.076667	0.2	-0.044327
0.080000	0.2	-0.046200
0.083333	0.2	-0.048523
0.086667	0.2	-0.051487
0.090000	0.2	-0.055047
0.093333	0.2	-0.059165
0.096667	0.2	-0.063560
0.100000	0.2	-0.067760
0.103333	0.2	-0.071357
0.106667	0.2	-0.074041
0.110000	0.2	-0.075688
0.113333	0.2	-0.076346
0.116667	0.2	-0.075859
0.120000	0.2	-0.073503
0.123333	0.2	-0.068088
0.126667	0.2	-0.058632
0.130000	0.2	-0.045540
0.133333	0.2	-0.031431
0.136667	0.2	-0.020291
0.140000	0.2	-0.015411
0.143333	0.2	-0.017937
0.146667	0.2	-0.026779
0.150000	0.2	-0.039445
0.153333	0.2	-0.053368
0.156667	0.2	-0.066827
0.160000	0.2	-0.077822
0.163333	0.2	-0.000531
0.166667	0.2	0.650223
0.170000	0.2	2.828945
0.173333	0.2	6.923967
0.176667	0.2	11.639854
0.180000	0.2	14.780558
0.183333	0.2	15.105956
0.186667	0.2	12.997163
0.190000	0.2	9.777337
0.193333	0.2	6.788244
0.196667	0.2	4.824727
0.200000	0.2	4.146278
0.203333	0.2	4.799037
0.206667	0.2	6.591099
0.210000	0.2	8.809192
0.213333	0.2	10.393875
0.216667	0.2	10.563953
0.220000	0.2	9.234278
0.223333	0.2	6.942347
0.226667	0.2	4.492280
0.230000	0.2	2.581287
0.233333	0.2	1.552855
0.236667	0.2	1.341329
0.240000	0.2	1.602401
0.243333	0.2	1.935190
0.246667	0.2	2.064623
0.250000	0.2	1.906696
0.253333	0.2	1.527460
0.256667	0.2	1.056838
0.260000	0.2	0.613827
0.263333	0.2	0.268814
0.266667	0.2	0.040698
0.270000	0.2	-0.086917
0.273333	0.2	-0.145597
0.276667	0.2	-0.166642
0.280000	0.2	-0.172804
0.283333	0.2	-0.176350
0.286667	0.2	-0.181560
0.290000	0.2	-0.188763
0.293333	0.2	-0.197287
0.296667	0.2	-0.206482
0.300000	0.2	-0.215598
0.303333	0.2	-0.223720
0.306667	0.2	-0.230086
0.310000	0.2	-0.234453
0.313333	0.2	-0.237138
0.316667	0.2	-0.238604
0.320000	0.2	-0.239279
0.323333	0.2	-0.239797
0.326667	0.2	-0.240770
0.330000	0.2	-0.242368
0.333333	0.2	-0.244474
0.336667	0.2	-0.246985
0.340000	0.2	-0.249745
0.343333	0.2	-0.252557
0.346667	0.2	-0.255395
0.350000	0.2	-0.258365
0.353333	0.2	-0.261501
0.356667	0.2	-0.264797
0.360000	0.2	-0.268194
0.363333	0.2	-0.271526
0.366667	0.2	-0.274711
0.370000	0.2	-0.277754
0.373333	0.2	-0.280615
0.376667	0.2	-0.283307
0.380000	0.2	-0.285839
0.383333	0.2	-0.288117
0.386667	0.2	-0.290022
0.390000	0.2	-0.291379
0.393333	0.2	-0.292058
0.396667	0.2	-0.292321
0.400000	0.2	-0.292768
0.403333	0.2	-0.293837
0.406667	0.2	-0.295611
0.410000	0.2	-0.297954
0.413333	0.2	-0.300536
0.416667	0.2	-0.302816
0.420000	0.2	-0.304424
0.423333	0.2	-0.305555
0.426667	0.2	-0.306752
0.430000	0.2	-0.308298
0.433333	0.2	-0.309970
0.436667	0.2	-0.311563
0.440000	0.2	-0.313416
0.443333	0.2	-0.316086
0.446667	0.2	-0.319566
0.450000	0.2	-0.323089
0.453333	0.2	-0.325793
0.456667	0.2	-0.327549
0.460000	0.2	-0.329027
0.463333	0.2	-0.330810
0.466667	0.2	-0.332656
0.470000	0.2	-0.333858
0.473333	0.2	-0.334068
0.476667	0.2	-0.333580
0.480000	0.2	-0.333087
0.483333	0.2	-0.333134
0.486667	0.2	-0.333643
0.490000	0.2	-0.334096
0.493333	0.2	-0.334318
0.496667	0.2	-0.334825
0.500000	0.2	-0.336180
0.503333	0.2	-0.338361
0.506667	0.2	-0.341083
0.510000	0.2	-0.344301
0.513333	0.2	-0.347967
0.516667	0.2	-0.351703
0.520000	0.2	-0.355030
0.523333	0.2	-0.357675
0.526667	0.2	-0.359592
0.530000	0.2	-0.360934
0.533333	0.2	-0.361978
0.536667	0.2	-0.362924
0.540000	0.2	-0.363842
0.543333	0.2	-0.364710
0.546667	0.2	-0.365343
0.550000	0.2	-0.365688
0.553333	0.2	-0.366205
0.556667	0.2	-0.367394
0.560000	0.2	-0.369163
0.563333	0.2	-0.371142
0.566667	0.2	-0.372992
0.570000	0.2	-0.374189
0.573333	0.2	-0.374226
0.576667	0.2	-0.373086
0.580000	0.2	-0.371244
0.583333	0.2	-0.369288
0.586667	0.2	-0.367531
0.590000	0.2	-0.365981
0.593333	0.2	-0.364655
0.596667	0.2	-0.363782
0.600000	0.2	-0.363485
0.603333	0.2	-0.363258
0.606667	0.2	-0.362092
0.610000	0.2	-0.359398
0.613333	0.2	-0.355538
0.616667	0.2	-0.351342
0.620000	0.2	-0.347304
0.623333	0.2	-0.343240
0.626667	0.2	-0.338679
0.630000	0.2	-0.333536
0.633333	0.2	-0.328099
0.636667	0.2	-0.322562
0.640000	0.2	-0.316883
0.643333	0.2	-0.310911
0.646667	0.2	-0.304481
0.650000	0.2	-0.297473
0.653333	0.2	-0.289946
0.656667	0.2	-0.282180
0.660000	0.2	-0.274302
0.663333	0.2	-0.265927
0.666667	0.2	-0.256490
0.670000	0.2	-0.245859
0.673333	0.2	-0.234346
0.676667	0.2	-0.222306
0.680000	0.2	-0.209931
0.683333	0.2	-0.197323
0.686667	0.2	-0.184646
0.690000	0.2	-0.171921
0.693333	0.2	-0.158640
0.696667	0.2	-0.144256
0.700000	0.2	-0.128979
0.703333	0.2	-0.113518
0.706667	0.2	-0.098389
0.710000	0.2	-0.083732
0.713333	0.2	-0.069321
0.716667	0.2	-0.054579
0.720000	0.2	-0.038842
0.723333	0.2	-0.021836
0.726667	0.2	-0.003897
0.730000	0.2	0.014224
0.733333	0.2	0.031848
0.736667	0.2	0.048894
0.740000	0.2	0.066069
0.743333	0.2	0.084310
0.746667	0.2	0.103949
0.750000	0.2	0.124484
0.753333	0.2	0.145139
0.756667	0.2	0.165572
0.760000	0.2	0.185996
0.763333	0.2	0.206633
0.766667	0.2	0.227421
0.770000	0.2	0.248382
0.773333	0.2	0.269796
0.776667	0.2	0.291828
0.780000	0.2	0.314278
0.783333	0.2	0.336634
0.786667	0.2	0.358352
0.790000	0.2	0.379316
0.793333	0.2	0.399965
0.796667	0.2	0.420860
0.800000	0.2	0.442358
0.803333	0.2	0.464669
0.806667	0.2	0.487931
0.810000	0.2	0.512007
0.813333	0.2	0.536300
0.816667	0.2	0.560072
0.820000	0.2	0.582827
0.823333	0.2	0.604391
0.826667	0.2	0.625055
0.830000	0.2	0.645365
0.833333	0.2	0.665632
0.836667	0.2	0.685908
0.840000	0.2	0.706004
0.843333	0.2	0.725598
0.846667	0.2	0.744722
0.850000	0.2	0.763928
0.853333	0.2	0.783951
0.856667	0.2	0.805282
0.860000	0.2	0.827859
0.863333	0.2	0.851145
0.866667	0.2	0.874272
0.870000	0.2	0.896124
0.873333	0.2	0.915670
0.876667	0.2	0.932578
0.880000	0.2	0.947592
0.883333	0.2	0.962103
0.886667	0.2	0.977155
0.890000	0.2	0.992945
0.893333	0.2	1.009124
0.896667	0.2	1.025235
0.900000	0.2	1.040953
0.903333	0.2	1.056291
0.906667	0.2	1.071591
0.910000	0.2	1.087471
0.913333	0.2	1.104762
0.916667	0.2	1.123933
0.920000	0.2	1.144568
0.923333	0.2	1.165613
0.926667	0.2	1.186101
0.930000	0.2	1.205570
0.933333	0.2	1.223735
0.936667	0.2	1.240206
0.940000	0.2	1.254992
0.943333	0.2	1.268962
0.946667	0.2	1.284447
0.950000	0.2	1.308217
0.953333	0.2	1.358934
0.956667	0.2	1.477257
0.960000	0.2	1.729354
0.963333	0.2	2.191269
0.966667	0.2	2.911564
0.970000	0.2	3.868849
0.973333	0.2	4.952567
0.976667	0.2	5.985518
0.980000	0.2	6.780007
0.983333	0.2	7.198995
0.986667	0.2	7.194303
0.990000	0.2	6.809952
0.993333	0.2	6.156301
0.996667	0.2	5.369997
1.000000	0.2	4.576040
1.003333	0.2	3.863698
1.006667	0.2	3.279520
1.010000	0.2	2.833556
1.013333	0.2	2.511856
1.016667	0.2	2.288933
1.020000	0.2	2.137060
1.023333	0.2	2.032058
1.026667	0.2	1.955965
1.030000	0.2	1.897400
1.033333	0.2	1.850414
1.036667	0.2	1.812459
1.040000	0.2	1.782426
1.043333	0.2	1.759658
1.046667	0.2	1.743908
1.050000	0.2	1.735037
1.053333	0.2	1.732075
1.056667	0.2	1.732860
1.060000	0.2	1.734901
1.063333	0.2	1.736752
1.066667	0.2	1.738655
1.070000	0.2	1.741626
1.073333	0.2	1.746006
1.076667	0.2	1.751180
1.080000	0.2	1.756283
1.083333	0.2	1.760856
1.086667	0.2	1.765000
1.090000	0.2	1.769087
1.093333	0.2	1.773297
1.096667	0.2	1.777366
1.100000	0.2	1.780929
1.103333	0.2	1.784060
1.106667	0.2	1.787397
1.110000	0.2	1.792090
1.113333	0.2	1.799471
1.116667	0.2	1.810311
1.120000	0.2	1.824432
1.123333	0.2	1.840836
1.126667	0.2	1.858010
1.130000	0.2	1.874463
1.133333	0.2	1.889049
1.136667	0.2	1.900866
1.140000	0.2	1.909246
1.143333	0.2	1.914061
1.146667	0.2	1.915991
1.150000	0.2	1.916341
1.153333	0.2	1.916365
1.156667	0.2	1.916836
1.160000	0.2	1.918368
1.163333	0.2	1.921713
1.166667	0.2	1.927430
1.170000	0.2	1.935253
1.173333	0.2	1.944153
1.176667	0.2	1.953235
1.180000	0.2	1.962129
1.183333	0.2	1.970670
1.186667	0.2	1.978589
1.190000	0.2	1.985289
1.193333	0.2	1.990082
1.196667	0.2	1.993017
1.200000	0.2	1.995208
1.203333	0.2	1.998112
1.206667	0.2	2.002551
1.210000	0.2	2.008444
1.213333	0.2	2.015375
1.216667	0.2	2.023395
1.220000	0.2	2.033209
1.223333	0.2	2.045557
1.226667	0.2	2.060461
1.230000	0.2	2.076805
1.233333	0.2	2.092281
1.236667	0.2	2.104264
1.240000	0.2	2.111504
1.243333	0.2	2.114933
1.246667	0.2	2.116814
1.250000	0.2	2.119496
1.253333	0.2	2.124833
1.256667	0.2	2.133791
1.260000	0.2	2.145874
1.263333	0.2	2.159242
1.266667	0.2	2.171913
1.270000	0.2	2.182826
1.273333	0.2	2.191889
1.276667	0.2	2.199527
1.280000	0.2	2.206289
1.283333	0.2	2.212479
1.286667	0.2	2.218062
1.290000	0.2	2.222971
1.293333	0.2	2.227161
1.296667	0.2	2.230577
1.300000	0.2	2.233611
1.303333	0.2	2.237251
1.306667	0.2	2.242253
1.310000	0.2	2.248432
1.313333	0.2	2.255076
1.316667	0.2	2.261828
1.320000	0.2	2.269045
1.323333	0.2	2.277642
1.326667	0.2	2.289172
1.330000	0.2	2.306065
1.333333	0.2	2.330733
1.336667	0.2	2.363349
1.340000	0.2	2.400446
1.343333	0.2	2.435990
1.346667	0.2	2.464192
1.350000	0.2	2.482294
1.353333	0.2	2.491956
1.356667	0.2	2.499054
1.360000	0.2	2.511585
1.363333	0.2	2.535050
1.366667	0.2	2.567780
1.370000	0.2	2.600873
1.373333	0.2	2.623537
1.376667	0.2	2.629502
1.380000	0.2	2.619748
1.383333	0.2	2.600199
1.386667	0.2	2.577300
1.390000	0.2	2.555381
1.393333	0.2	2.536586
1.396667	0.2	2.522098
1.400000	0.2	2.515149
1.403333	0.2	2.526649
1.406667	0.2	2.578125
1.410000	0.2	2.691842
1.413333	0.2	2.868901
1.416667	0.2	3.075026
1.420000	0.2	3.252229
1.423333	0.2	3.349398
1.426667	0.2	3.347176
1.430000	0.2	3.261296
1.433333	0.2	3.128134
1.436667	0.2	2.986028
1.440000	0.2	2.863002
1.443333	0.2	2.773345
1.446667	0.2	2.719458
1.450000	0.2	2.695197
1.453333	0.2	2.689668
1.456667	0.2	2.691560
1.460000	0.2	2.692888
1.463333	0.2	2.690500
1.466667	0.2	2.684969
1.470000	0.2	2.678609
1.473333	0.2	2.674262
1.476667	0.2	2.674246
1.480000	0.2	2.679061
1.483333	0.2	2.687232
1.486667	0.2	2.696509
1.490000	0.2	2.705167
1.493333	0.2	2.712982
1.496667	0.2	2.721540
1.500000	0.2	2.733323
1.503333	0.2	2.749954
1.506667	0.2	2.771005
1.510000	0.2	2.794161
1.513333	0.2	2.816204
1.516667	0.2	2.834125
1.520000	0.2	2.846023
1.523333	0.2	2.851551
1.526667	0.2	2.852199
1.530000	0.2	2.851643
1.533333	0.2	2.855353
1.536667	0.2	2.868518
1.540000	0.2	2.892925
1.543333	0.2	2.925134
1.546667	0.2	2.957550
1.550000	0.2	2.981780
1.553333	0.2	2.992411
1.556667	0.2	2.989077
1.560000	0.2	2.976192
1.563333	0.2	2.962285
1.566667	0.2	2.962772
1.570000	0.2	3.010663
1.573333	0.2	3.169172
1.576667	0.2	3.517290
1.580000	0.2	4.088358
1.583333	0.2	4.803953
1.586667	0.2	5.479161
1.590000	0.2	5.912813
1.593333	0.2	5.991778
1.596667	0.2	5.733335
1.600000	0.2	5.252582
1.603333	0.2	4.694890
1.606667	0.2	4.178588
1.610000	0.2	3.769120
1.613333	0.2	3.482294
1.616667	0.2	3.302656
1.620000	0.2	3.202619
1.623333	0.2	3.154448
1.626667	0.2	3.135318
1.630000	0.2	3.129519
1.633333	0.2	3.130790
1.636667	0.2	3.146960
1.640000	0.2	3.206896
1.643333	0.2	3.358466
1.646667	0.2	3.641015
1.650000	0.2	4.041725
1.653333	0.2	4.476696
1.656667	0.2	4.823628
1.660000	0.2	4.983908
1.663333	0.2	4.927885
1.666667	0.2	4.698550
1.670000	0.2	4.383983
1.673333	0.2	4.083690
1.676667	0.2	3.881895
1.680000	0.2	3.825074
1.683333	0.2	3.905161
1.686667	0.2	4.062507
1.690000	0.2	4.215899
1.693333	0.2	4.303098
1.696667	0.2	4.304707
1.700000	0.2	4.239078
1.703333	0.2	4.138737
1.706667	0.2	4.028938
1.710000	0.2	3.921293
1.713333	0.2	3.820183
1.716667	0.2	3.732456
1.720000	0.2	3.674733
1.723333	0.2	3.675788
1.726667	0.2	3.768827
1.730000	0.2	3.970590
1.733333	0.2	4.257932
1.736667	0.2	4.563697
1.740000	0.2	4.801999
1.743333	0.2	4.907177
1.746667	0.2	4.860198
1.750000	0.2	4.689199
1.753333	0.2	4.449710
1.756667	0.2	4.199540
1.760000	0.2	3.981112
1.763333	0.2	3.815669
1.766667	0.2	3.706394
1.770000	0.2	3.644970
1.773333	0.2	3.617653
1.776667	0.2	3.609952
1.780000	0.2	3.610221
1.783333	0.2	3.611926
1.786667	0.2	3.614214
1.790000	0.2	3.621243
1.793333	0.2	3.640455
1.796667	0.2	3.678404
1.800000	0.2	3.734895
1.803333	0.2	3.800032
1.806667	0.2	3.857603
1.810000	0.2	3.893024
1.813333	0.2	3.900456
1.816667	0.2	3.884591
1.820000	0.2	3.856701
1.823333	0.2	3.828336
1.826667	0.2	3.806565
1.830000	0.2	3.792821
1.833333	0.2	3.785097
1.836667	0.2	3.780809
1.840000	0.2	3.778319
1.843333	0.2	3.777856
1.846667	0.2	3.782754
1.850000	0.2	3.800525
1.853333	0.2	3.841501
1.856667	0.2	3.912944
1.860000	0.2	4.011383
1.863333	0.2	4.120107
1.866667	0.2	4.215632
1.870000	0.2	4.279551
1.873333	0.2	4.307782
1.876667	0.2	4.310921
1.880000	0.2	4.305801
1.883333	0.2	4.304932
1.886667	0.2	4.311329
1.890000	0.2	4.320874
1.893333	0.2	4.328962
1.896667	0.2	4.336496
1.900000	0.2	4.351433
1.903333	0.2	4.384402
1.906667	0.2	4.440797
1.910000	0.2	4.515250
1.913333	0.2	4.592778
1.916667	0.2	4.656075
1.920000	0.2	4.695848
1.923333	0.2	4.719221
1.926667	0.2	4.748876
1.930000	0.2	4.808074
1.933333	0.2	4.899753
1.936667	0.2	4.998833
1.940000	0.2	5.066446
1.943333	0.2	5.073594
1.946667	0.2	5.015629
1.950000	0.2	4.910478
1.953333	0.2	4.786699
1.956667	0.2	4.670867
1.960000	0.2	4.579955
1.963333	0.2	4.520196
1.966667	0.2	4.491114
1.970000	0.2	4.491452
1.973333	0.2	4.525194
1.976667	0.2	4.635113
1.980000	0.2	5.167087
1.983333	0.2	7.863056
1.986667	0.2	18.161968
1.990000	0.2	46.754548
1.993333	0.2	105.769684
1.996667	0.2	198.250148
2.000000	0.2	309.006140
2.003333	0.2	407.819206
2.006667	0.2	464.787624
2.010000	0.2	465.567680
2.013333	0.2	415.869267
2.016667	0.2	335.072157
2.020000	0.2	245.745597
2.023333	0.2	165.467921
2.026667	0.2	103.490964
2.030000	0.2	61.492148
2.033333	0.2	36.335271
2.036667	0.2	22.996961
2.040000	0.2	16.663672
2.043333	0.2	13.773339
2.046667	0.2	12.212969
2.050000	0.2	11.024209
2.053333	0.2	9.940236
2.056667	0.2	8.980098
2.060000	0.2	8.205432
2.063333	0.2	7.631878
2.066667	0.2	7.228041
2.070000	0.2	6.940211
2.073333	0.2	6.715426
2.076667	0.2	6.518118
2.080000	0.2	6.338352
2.083333	0.2	6.189977
2.086667	0.2	6.101953
2.090000	0.2	6.105802
2.093333	0.2	6.217307
2.096667	0.2	6.417206
2.100000	0.2	6.648449
2.103333	0.2	6.840342
2.106667	0.2	6.943676
2.110000	0.2	6.951311
2.113333	0.2	6.907200
2.116667	0.2	6.948968
2.120000	0.2	7.407488
2.123333	0.2	8.847492
2.126667	0.2	11.831872
2.130000	0.2	16.412922
2.133333	0.2	21.769976
2.136667	0.2	26.435480
2.140000	0.2	29.020703
2.143333	0.2	28.890906
2.146667	0.2	26.349805
2.150000	0.2	22.337362
2.153333	0.2	17.939801
2.156667	0.2	14.001849
2.160000	0.2	10.964645
2.163333	0.2	8.900683
2.166667	0.2	7.649777
2.170000	0.2	6.965604
2.173333	0.2	6.620288
2.176667	0.2	6.452055
2.180000	0.2	6.366613
2.183333	0.2	6.315499
2.186667	0.2	6.274167
2.190000	0.2	6.231148
2.193333	0.2	6.185514
2.196667	0.2	6.144503
2.200000	0.2	6.119318
2.203333	0.2	6.123039
2.206667	0.2	6.171364
2.210000	0.2	6.283068
2.213333	0.2	6.479624
2.216667	0.2	6.781790
2.220000	0.2	7.194919
2.223333	0.2	7.685484
2.226667	0.2	8.173062
2.230000	0.2	8.556610
2.233333	0.2	8.759537
2.236667	0.2	8.759724
2.240000	0.2	8.588854
2.243333	0.2	8.311973
2.246667	0.2	8.003496
2.250000	0.2	7.727129
2.253333	0.2	7.523490
2.256667	0.2	7.408729
2.260000	0.2	7.384074
2.263333	0.2	7.453174
2.266667	0.2	7.637014
2.270000	0.2	7.965204
2.273333	0.2	8.434469
2.276667	0.2	8.967363
2.280000	0.2	9.421515
2.283333	0.2	9.654463
2.286667	0.2	9.594265
2.290000	0.2	9.266667
2.293333	0.2	8.772388
2.296667	0.2	8.240802
2.300000	0.2	7.788704
2.303333	0.2	7.495735
2.306667	0.2	7.391655
2.310000	0.2	7.451611
2.313333	0.2	7.607429
2.316667	0.2	7.783258
2.320000	0.2	7.947142
2.323333	0.2	8.146785
2.326667	0.2	8.487248
2.330000	0.2	9.042048
2.333333	0.2	9.760789
2.336667	0.2	10.463001
2.340000	0.2	10.934372
2.343333	0.2	11.046781
2.346667	0.2	10.814202
2.350000	0.2	10.367954
2.353333	0.2	9.904549
2.356667	0.2	9.667075
2.360000	0.2	9.960022
2.363333	0.2	11.114646
2.366667	0.2	13.322269
2.370000	0.2	16.400528
2.373333	0.2	19.711064
2.376667	0.2	22.378028
2.380000	0.2	23.695045
2.383333	0.2	23.438619
2.386667	0.2	21.895894
2.390000	0.2	19.642176
2.393333	0.2	17.252563
2.396667	0.2	15.114865
2.400000	0.2	13.393950
2.403333	0.2	12.094860
2.406667	0.2	11.144569
2.410000	0.2	10.447640
2.413333	0.2	9.916292
2.416667	0.2	9.488154
2.420000	0.2	9.133249
2.423333	0.2	8.846950
2.426667	0.2	8.633533
2.430000	0.2	8.492502
2.433333	0.2	8.419758
2.436667	0.2	8.425061
2.440000	0.2	8.546954
2.443333	0.2	8.835302
2.446667	0.2	9.297933
2.450000	0.2	9.856338
2.453333	0.2	10.362008
2.456667	0.2	10.668764
2.460000	0.2	10.703864
2.463333	0.2	10.490119
2.466667	0.2	10.118234
2.470000	0.2	9.699463
2.473333	0.2	9.327379
2.476667	0.2	9.062265
2.480000	0.2	8.938141
2.483333	0.2	8.979996
2.486667	0.2	9.209803
2.490000	0.2	9.631190
2.493333	0.2	10.209140
2.496667	0.2	10.871005
2.500000	0.2	11.548920
2.503333	0.2	12.274561
2.506667	0.2	13.279576
2.510000	0.2	14.955436
2.513333	0.2	17.569674
2.516667	0.2	20.907372
2.520000	0.2	24.196649
2.523333	0.2	26.463522
2.526667	0.2	27.052254
2.530000	0.2	25.916692
2.533333	0.2	23.537972
2.536667	0.2	20.632356
2.540000	0.2	17.885996
2.543333	0.2	15.805201
2.546667	0.2	14.629705
2.550000	0.2	14.281174
2.553333	0.2	14.409868
2.556667	0.2	14.571411
2.560000	0.2	14.439002
2.563333	0.2	13.915738
2.566667	0.2	13.105278
2.570000	0.2	12.203832
2.573333	0.2	11.395813
2.576667	0.2	10.793568
2.580000	0.2	10.423236
2.583333	0.2	10.244918
2.586667	0.2	10.189711
2.590000	0.2	10.193795
2.593333	0.2	10.218043
2.596667	0.2	10.255529
2.600000	0.2	10.339300
2.603333	0.2	10.549469
2.606667	0.2	10.980357
2.610000	0.2	11.647016
2.613333	0.2	12.410612
2.616667	0.2	13.025234
2.620000	0.2	13.281317
2.623333	0.2	13.119339
2.626667	0.2	12.636471
2.630000	0.2	12.014761
2.633333	0.2	11.441216
2.636667	0.2	11.060125
2.640000	0.2	10.952822
2.643333	0.2	11.122874
2.646667	0.2	11.485742
2.650000	0.2	11.889906
2.653333	0.2	12.179700
2.656667	0.2	12.263319
2.660000	0.2	12.140393
2.663333	0.2	11.880554
2.666667	0.2	11.578641
2.670000	0.2	11.318686
2.673333	0.2	11.163798
2.676667	0.2	11.163273
2.680000	0.2	11.350636
2.683333	0.2	11.719798
2.686667	0.2	12.204952
2.690000	0.2	12.705962
2.693333	0.2	13.160282
2.696667	0.2	13.595977
2.700000	0.2	14.089835
2.703333	0.2	14.652597
2.706667	0.2	15.170596
2.710000	0.2	15.482642
2.713333	0.2	15.510554
2.716667	0.2	15.306605
2.720000	0.2	14.987887
2.723333	0.2	14.643918
2.726667	0.2	14.301632
2.730000	0.2	13.951085
2.733333	0.2	13.586089
2.736667	0.2	13.224495
2.740000	0.2	12.902266
2.743333	0.2	12.655615
2.746667	0.2	12.509774
2.750000	0.2	12.482175
2.753333	0.2	12.590337
2.756667	0.2	12.851563
2.760000	0.2	13.288939
2.763333	0.2	13.975468
2.766667	0.2	15.075292
2.770000	0.2	16.752136
2.773333	0.2	18.936058
2.776667	0.2	21.189242
2.780000	0.2	22.877358
2.783333	0.2	23.519784
2.786667	0.2	23.021652
2.790000	0.2	21.655942
2.793333	0.2	19.884113
2.796667	0.2	18.158981
2.800000	0.2	16.789956
2.803333	0.2	15.890032
2.806667	0.2	15.401664
2.810000	0.2	15.179946
2.813333	0.2	15.083794
2.816667	0.2	15.024872
2.820000	0.2	14.965557
2.823333	0.2	14.897631
2.826667	0.2	14.830381
2.830000	0.2	14.785101
2.833333	0.2	14.780599
2.836667	0.2	14.816197
2.840000	0.2	14.874619
2.843333	0.2	14.946363
2.846667	0.2	15.047827
2.850000	0.2	15.208940
2.853333	0.2	15.440223
2.856667	0.2	15.713265
2.860000	0.2	15.972592
2.863333	0.2	16.164834
2.866667	0.2	16.263125
2.870000	0.2	16.275022
2.873333	0.2	16.231386
2.876667	0.2	16.164903
2.880000	0.2	16.095266
2.883333	0.2	16.029519
2.886667	0.2	15.969639
2.890000	0.2	15.917992
2.893333	0.2	15.882762
2.896667	0.2	15.883601
2.900000	0.2	15.945209
2.903333	0.2	16.075833
2.906667	0.2	16.251368
2.910000	0.2	16.424387
2.913333	0.2	16.550472
2.916667	0.2	16.608079
2.920000	0.2	16.600294
2.923333	0.2	16.546686
2.926667	0.2	16.476006
2.930000	0.2	16.420216
2.933333	0.2	16.406106
2.936667	0.2	16.447000
2.940000	0.2	16.542343
2.943333	0.2	16.687828
2.946667	0.2	16.885523
2.950000	0.2	17.137642
2.953333	0.2	17.425365
2.956667	0.2	17.699408
2.960000	0.2	17.900963
2.963333	0.2	17.994975
2.966667	0.2	17.985410
2.970000	0.2	17.906124
2.973333	0.2	17.801748
2.976667	0.2	17.712677
2.980000	0.2	17.668344
2.983333	0.2	17.683782
2.986667	0.2	17.754662
2.990000	0.2	17.856168
2.993333	0.2	17.953420
2.996667	0.2	18.019245
3.000000	0.2	18.047473
3.003333	0.2	18.054530
3.006667	0.2	18.068026
3.010000	0.2	18.107848
3.013333	0.2	18.173423
3.016667	0.2	18.249313
3.020000	0.2	18.325184
3.023333	0.2	18.408502
3.026667	0.2	18.513398
3.030000	0.2	18.637822
3.033333	0.2	18.756803
3.036667	0.2	18.839617
3.040000	0.2	18.871086
3.043333	0.2	18.857626
3.046667	0.2	18.818986
3.050000	0.2	18.776542
3.053333	0.2	18.744789
3.056667	0.2	18.728411
3.060000	0.2	18.725148
3.063333	0.2	18.731527
3.066667	0.2	18.746701
3.070000	0.2	18.771028
3.073333	0.2	18.801078
3.076667	0.2	18.827946
3.080000	0.2	18.842005
3.083333	0.2	18.838796
3.086667	0.2	18.821864
3.090000	0.2	18.801809
3.093333	0.2	18.790456
3.096667	0.2	18.794594
3.100000	0.2	18.815369
