URL	chrom://pc-3vxg514/ChromeleonLocal/Data/2024/2024_w23.seq/944.smp/ISQEC.xraw
Channel	UV_VIS_2

Injection Information:
Data Vault	ChromeleonLocal
Sequence	2024_w23
Name	ODIBO_UV_90min
Number	67
Position	GE5
Comment	
Processing Method	General_ILK
Instrument Method	5-100pct_positive_3min
Type	Calibration Standard
Status	Finished
Inject Time	6/5/2024 1:55:24 PM +02:00
Volume (µl)	1.5000
Dilution Factor	1.0000
Weight	1.0000

Raw Data Information:
Data Points	1253
Mass Min. (m/z)	100.000000
Mass Max. (m/z)	1200.092420
Retention Time (min)	2.530538
Mass Resolution	0.500000
Tolerance Unit	Amu
Scan Number	1135
Scan Type	+ c ESI sid=20.00 Full ms [100.000-1200.000]
Is Centroid Scan	True
Base Peak Mass	557.279053
Base Peak Intensity	3620127.250000
Total Ion Count	47405893.417828

Raw Data:
Mass (m/z)	Value (counts)
101.0	2458332.250000
102.2	165559.609375
103.0	12383.938477
103.9	1722.275269
105.1	3052898.750000
106.2	108029.718750
107.3	7313.448242
108.2	38893.718750
109.3	8003.410156
110.0	810.041504
110.6	362.321136
111.1	4632.246094
112.9	2660.503418
113.4	4655.070313
114.1	12114.338867
115.0	15773.952148
115.6	11120.997070
116.2	1469.984131
117.3	3213.153076
118.1	40798.187500
119.0	10648.862305
120.4	26750.960938
121.1	24810.724609
122.1	522948.375000
123.1	37627.804688
124.2	12833.854492
125.2	8410.904297
126.2	8966.375000
127.1	1149.567017
128.1	26305.361328
129.1	41858.937500
129.7	11110.563477
130.4	59508.191406
131.0	15169.168945
131.7	22501.935547
132.4	8495.297852
133.1	1473.771362
134.3	6532.005371
135.2	10194.782227
136.1	191254.640625
137.2	18416.736328
137.8	1925.587524
138.3	55.513638
138.8	637.381470
139.4	3498.428223
140.1	5213.187988
141.1	20312.373047
141.9	21124.736328
142.4	12936.025391
143.3	13801.541992
143.8	190.745010
145.0	67771.429688
146.1	723776.375000
147.3	59744.539063
148.1	29195.898438
149.0	2413.729492
149.8	56911.945313
150.4	83968.898438
151.6	47533.437500
152.3	21249.177734
153.0	27473.494141
153.7	4250.152344
155.1	34124.628906
156.2	10316.137695
157.4	2865.402100
158.3	13807.006836
159.1	3156.134766
160.2	3399.475586
160.9	517.996155
162.0	9109.324219
162.7	16241.125977
163.3	63916.007813
164.2	54680.402344
165.0	15301.053711
165.7	11603.758789
166.5	3290.575684
167.2	4738.942871
168.2	2943.784180
169.1	3864.764648
170.0	1046.916382
171.1	11051.752930
172.1	2539.829102
173.3	1333.842285
174.0	4148.384766
174.5	3736.926758
175.4	8759.726563
176.1	1916.175415
177.0	7331.163086
178.2	48232.660156
179.1	7664.362305
180.0	3998.321045
181.3	10829.114258
182.2	2551.125244
183.1	8906.824219
184.8	1751.985840
186.0	12236.937500
186.5	1603.807007
188.1	19528.455078
189.1	7306.236328
189.6	3459.666504
190.4	1906.062378
190.9	2570.174561
192.1	25696.271484
192.9	3083.299072
193.6	6591.278809
194.1	35555.382813
195.2	8130.447754
196.2	6369.673828
198.1	4864.923340
198.9	8538.146484
199.6	1312.241821
200.3	9191.796875
201.0	0.657503
202.1	5316.436035
203.0	1385.926270
204.0	6525.269043
205.1	1847.776978
206.6	11814.980469
207.1	8103.207520
207.7	3822.470947
208.4	16977.857422
209.2	3812.474854
210.9	23168.220703
212.1	7431.360352
212.8	2932.801025
213.5	4857.270996
214.2	21329.410156
214.8	994.757446
216.0	14075.338867
217.2	8241.561523
218.0	4726.475586
218.8	1.263717
220.2	1430.809814
221.2	28238.574219
222.1	72480.656250
223.2	26253.460938
224.1	130362.359375
224.9	15624.385742
226.1	27971.519531
227.0	5227.449219
228.1	10736.693359
228.7	11992.706055
229.8	3900.551514
230.5	820.148438
231.4	5618.653320
232.3	3059.123779
233.4	10158.291992
234.0	4098.090332
234.8	1185.382690
235.6	841.299683
236.2	1493.088379
237.3	822.139099
238.8	6714.802246
239.5	829.621826
240.1	1455.881226
241.1	13558.530273
242.1	2610.521484
243.2	9477.480469
244.2	8004.960938
244.8	6762.795410
245.4	5710.260742
246.1	8555.037109
246.8	9227.694336
248.2	4928.592285
249.2	228.327316
249.9	3570.453857
251.2	10038.764648
251.9	5233.786621
253.0	904.044128
253.5	2736.942383
254.5	1082.927368
255.6	10227.621094
256.3	2428.686279
257.3	4311.717773
258.2	3411.044434
259.1	17896.619141
259.8	1752.633789
260.4	2799.028320
261.5	9574.612305
262.2	9569.595703
262.9	3235.386475
264.0	260172.671875
264.6	38351.050781
265.1	44947.402344
266.0	19444.273438
267.2	44066.742188
268.3	7831.732422
269.1	2872.177734
270.7	4902.828613
271.3	3657.931641
272.4	3384.605957
273.4	10676.197266
274.2	8557.040039
274.9	5911.329590
275.5	1008.067383
276.1	2262.163330
277.2	39260.921875
278.1	12042.901367
278.9	329565.125000
279.4	535755.375000
280.3	148401.125000
281.2	25584.994141
282.3	31443.511719
283.3	15547.937500
284.5	6546.288086
285.8	2574.792480
286.3	3395.305176
287.0	10.603907
288.0	78.808815
288.7	5826.793457
289.5	1872.957520
290.3	7483.292969
291.3	7073.279297
292.3	104.298798
293.5	4495.930664
294.2	14932.404297
295.0	4257.689941
295.9	19682.560547
297.2	1254242.250000
298.3	252516.656250
299.2	34235.808594
300.3	5664.725586
301.4	3597.200439
303.0	6805.245605
304.0	549.793457
304.6	6823.118164
305.4	4371.250488
306.6	3165.450684
307.4	9768.542969
308.1	4048.166016
309.4	3208.993652
310.0	11239.982422
311.2	22288.587891
312.2	8573.309570
313.2	8060.162598
314.4	2479.152588
315.4	16538.664063
316.8	11389.126953
317.8	678.587708
319.0	5322.705566
320.2	2308743.750000
321.3	581534.000000
322.3	143464.031250
323.3	24372.869141
324.2	1780.011597
324.9	4585.610352
325.9	11157.878906
326.5	2792.688965
327.3	29262.138672
328.7	15220.780273
329.5	24840.101563
330.3	2434.437500
331.2	4912.868652
332.2	9332.483398
333.5	6895.718262
334.7	789.975952
335.3	21081.750000
336.4	18391.933594
337.2	6928.486816
338.2	320760.750000
339.2	61831.300781
340.3	4578.300781
340.8	2782.727051
341.4	8123.872559
342.2	10406.805664
343.3	6380.958496
344.1	1327.957764
345.1	2219.785645
345.8	10464.827148
346.3	208.202606
347.3	7029.501953
348.2	18110.488281
349.0	10124.190430
349.6	2043.093262
350.5	1178.151001
351.3	15480.181641
352.3	15448.737305
353.0	5005.586426
353.9	17636.283203
354.4	31160.242188
355.4	19357.103516
356.2	5418.788574
357.1	5597.452148
358.3	8929.559570
359.3	312181.437500
360.3	95101.078125
361.3	307013.781250
362.3	92735.554688
363.1	23182.574219
364.0	5556.270996
364.5	55.603752
365.4	3710.752930
366.1	9481.375000
367.1	11486.592773
368.4	6224.592773
369.5	11371.831055
370.3	11761.716797
371.1	5070.471191
371.7	4396.813477
372.3	7359.746094
373.2	10995.948242
374.1	5171.608398
374.6	994.633240
375.5	14434.106445
376.3	2384.697266
377.2	8789.329102
378.1	2135.466309
378.7	3725.833740
379.4	38898.320313
380.2	13470.443359
380.8	5102.966797
381.5	3756.324951
383.0	10658.890625
383.5	7876.631348
384.1	3016.182861
385.0	12247.731445
386.1	811.170898
386.9	2215.579834
388.1	4808.801270
389.3	13834.046875
390.2	2850.640381
391.2	7951.035645
392.3	54420.890625
393.2	18737.738281
394.4	98619.312500
395.4	35052.949219
396.4	9281.664063
397.2	26323.445313
398.0	6036.676270
398.6	1192.205688
399.5	5809.711914
400.3	4710.538086
401.0	18817.015625
401.5	55826.644531
402.3	28975.312500
403.1	10830.587891
404.1	8739.925781
405.0	20402.218750
405.7	12964.630859
406.3	10210.016602
407.2	12254.516602
408.1	5399.645996
409.1	11955.053711
410.1	5051.776855
411.4	23183.246094
412.4	1422.338379
413.3	9442.116211
414.0	5020.198730
415.3	8797.221680
416.2	4440.611328
417.0	8359.106445
418.2	12025.245117
418.8	1468.807983
419.6	3724.403076
420.5	2344.540771
421.3	18194.402344
422.4	19841.621094
423.1	20758.738281
424.1	5574.688477
424.7	3305.746582
425.3	6078.102539
426.3	15750.314453
427.6	15116.263672
428.4	8438.774414
429.3	16451.613281
430.3	19424.742188
430.9	12643.673828
431.6	2421.395020
432.2	6101.293945
433.1	20236.296875
434.1	7380.714844
435.2	17614.404297
436.2	11877.689453
437.1	12765.062500
438.2	15958.688477
439.3	95487.390625
440.3	22120.886719
441.3	15325.918945
441.9	1673.083984
442.7	7046.611816
443.2	15643.008789
444.1	7297.369141
445.1	32065.873047
446.1	7875.542480
447.2	31294.476563
448.0	17456.431641
449.3	13512.027344
450.2	16654.906250
451.2	30378.628906
452.1	16161.192383
453.3	31967.804688
454.3	15929.126953
455.2	17874.111328
456.4	1998.561768
457.1	7599.423340
458.3	4256.942383
458.8	3380.698242
459.4	1427.190552
460.2	8014.886230
461.0	5476.950195
461.8	5811.488770
462.4	20739.820313
463.2	17758.585938
464.0	9194.352539
465.1	22917.000000
466.2	12421.958008
467.2	32360.957031
468.0	14167.991211
469.0	14578.215820
469.6	4829.009277
470.4	10638.063477
471.2	2673.229736
471.8	3208.245361
472.3	3998.175293
473.3	45771.390625
474.3	19312.882813
475.1	26638.462891
475.7	2250.266113
476.4	10701.461914
477.3	14913.022461
478.2	10049.641602
478.9	19261.656250
479.6	6402.193848
480.5	8761.003906
481.5	4869.690918
482.1	1645.144165
483.2	26162.478516
484.2	2739.854248
485.3	7779.765625
486.1	7373.532715
486.6	9399.006836
487.2	10668.552734
488.3	1777.906250
489.3	26974.861328
490.4	3607.500732
491.1	32483.431641
491.8	6756.231934
492.5	6197.853027
493.3	14254.544922
493.9	2773.718506
495.1	7590.439453
495.6	11080.173828
496.4	1997.371948
497.0	3919.749756
498.1	21232.125000
498.9	42803.636719
499.8	32540.398438
501.3	1885138.250000
502.3	681589.437500
503.3	115563.625000
504.3	42204.785156
505.2	20793.382813
505.9	7814.471680
506.9	21611.880859
507.7	17947.482422
508.7	24492.408203
509.4	22546.966797
510.3	21684.654297
511.3	65882.375000
512.3	16554.693359
513.2	10797.363281
514.1	7916.204590
514.9	15657.243164
515.4	5683.473633
516.2	57837.808594
517.2	49782.199219
518.5	13844.391602
519.2	28356.091797
520.6	26826.486328
521.4	48814.054688
522.2	35443.953125
523.6	16648.767578
524.4	10465.021484
525.3	19741.857422
526.2	13901.998047
527.2	16902.533203
528.1	8169.408203
529.2	13729.122070
529.9	4103.506836
530.5	9461.463867
531.2	9902.686523
532.2	18617.431641
532.9	10730.541992
533.5	8264.650391
534.9	27663.687500
536.1	17177.638672
537.2	14818.958984
537.9	11481.444336
538.8	13928.154297
539.4	9182.109375
540.2	5828.707520
540.7	6665.395996
541.3	16145.426758
542.5	10016.752930
543.3	24241.171875
544.2	30099.767578
545.3	96163.195313
546.1	20411.091797
546.6	16710.853516
547.4	19489.023438
548.2	7954.168457
549.2	44515.246094
550.3	18267.687500
551.2	27656.750000
552.0	5296.268555
552.5	5655.912598
553.2	48400.035156
554.0	22413.353516
555.2	204716.890625
556.0	91651.257813
557.3	3620127.250000
558.4	1229833.250000
559.4	326672.781250
560.4	123411.156250
561.3	45191.593750
562.1	26629.710938
563.2	28127.728516
564.1	22167.021484
565.0	17389.976563
565.8	19699.708984
566.8	13613.408203
568.2	9702.022461
569.3	20255.166016
570.4	14085.458984
570.9	9497.499023
571.5	23042.921875
572.3	8007.589355
572.8	10109.232422
573.3	100474.500000
574.2	62217.601563
574.9	64328.753906
575.6	64499.417969
576.4	31761.335938
577.4	15173.216797
578.3	10103.076172
579.2	34569.171875
580.2	13648.410156
581.2	58918.824219
582.2	11735.770508
582.9	24920.710938
583.4	36322.750000
584.4	39420.175781
585.2	70158.351563
586.5	28145.031250
587.3	14436.029297
588.3	16276.365234
589.3	325014.062500
590.2	103743.093750
591.1	81198.453125
592.1	20678.365234
593.5	25540.708984
594.4	6168.764160
595.3	64155.011719
596.3	21111.126953
597.0	13776.052734
597.5	8135.727051
598.1	58646.371094
598.6	118053.125000
599.4	101614.437500
600.3	42640.722656
601.1	26437.908203
601.7	19697.960938
602.5	23207.556641
603.3	37455.343750
604.1	45253.531250
605.2	37562.535156
605.9	30387.990234
606.4	13921.805664
607.3	76838.664063
608.2	31473.376953
609.0	80780.031250
609.8	38239.988281
610.9	53961.289063
611.4	61028.925781
612.2	48221.566406
612.9	31718.472656
613.6	41254.718750
614.5	26057.316406
615.2	43550.550781
616.0	35538.609375
616.5	18037.917969
617.2	144695.687500
618.0	60763.007813
618.8	48079.527344
619.3	28437.837891
620.1	28838.861328
621.2	32574.123047
622.1	11157.138672
623.0	8216.220703
623.6	10427.703125
624.7	23944.597656
625.3	14947.604492
626.3	16775.779297
627.2	32862.316406
627.9	16506.753906
628.5	13385.225586
629.1	33219.324219
629.6	12615.095703
630.5	14814.459961
631.5	32596.685547
632.2	17902.734375
633.2	47664.832031
634.1	23270.507813
635.4	18065.740234
636.4	16300.990234
637.1	12059.751953
637.8	4337.952148
638.6	12249.733398
639.2	20935.335938
639.7	12005.590820
640.5	7290.667969
641.3	9440.514648
642.3	4377.428223
643.2	29788.962891
643.8	24694.214844
644.6	14828.434570
645.4	18858.414063
646.4	14474.395508
647.3	17066.431641
648.2	14408.688477
649.2	26068.250000
650.0	7794.731445
650.5	6389.217285
651.3	11684.730469
652.3	65118.046875
653.0	31451.945313
653.6	14052.863281
654.4	15981.620117
655.2	16555.142578
655.7	3525.105957
656.2	2234.011963
656.8	5201.657715
657.5	18450.302734
658.6	16365.958008
659.3	29243.746094
659.9	14128.238281
660.7	15952.451172
661.4	30029.816406
662.4	20033.224609
663.4	33331.941406
664.1	11790.047852
664.7	4530.130859
665.4	26579.900391
666.3	11373.420898
667.3	21028.275391
668.1	11978.576172
669.0	19361.246094
670.0	8171.164551
671.0	12759.600586
672.0	5094.987793
672.7	9800.646484
673.5	26476.361328
674.4	9307.285156
675.3	14658.740234
676.4	15813.288086
677.3	39420.343750
678.3	27206.859375
679.0	9519.185547
679.6	10787.897461
680.3	11004.144531
681.2	25915.306641
682.2	13927.607422
683.3	11042.533203
683.9	14634.663086
684.5	6779.628906
685.4	83178.062500
686.3	53961.386719
687.0	14595.679688
687.5	25921.513672
688.3	82174.429688
689.5	74488.812500
690.3	124533.078125
691.5	86843.789063
692.4	51045.207031
693.2	56128.656250
694.1	39059.488281
694.9	25184.101563
695.9	28400.925781
696.4	11884.826172
697.2	28904.845703
698.3	21122.564453
699.2	27986.417969
700.3	9853.437500
701.1	17077.476563
701.9	10747.166016
702.6	3843.884033
703.3	29900.181641
704.2	23044.396484
704.7	3025.853271
705.4	35386.945313
706.3	12055.238281
707.2	12139.116211
708.4	13116.119141
709.2	12727.323242
709.9	6604.283203
710.9	10766.237305
711.6	11775.539063
712.4	5470.739258
713.3	13304.870117
714.1	3096.619629
715.3	10012.304688
716.1	11519.206055
717.1	17609.484375
718.0	13949.995117
719.1	27043.031250
720.2	25838.736328
721.4	36078.574219
722.0	17930.884766
722.7	14861.484375
723.4	33823.421875
724.2	31338.927734
725.1	33318.757813
725.7	9868.159180
726.2	8565.106445
727.1	27002.396484
728.0	11428.516602
729.0	28062.054688
730.0	42173.433594
731.2	42214.554688
732.3	7105.793457
733.1	5281.875000
734.2	8659.726563
735.2	19747.976563
736.2	14430.083984
737.3	14056.936523
738.3	6386.916016
739.2	30242.548828
739.7	16419.820313
740.4	13677.870117
741.4	17479.990234
742.1	1169.869995
742.6	1051.786011
743.2	3053.623047
743.9	4654.733887
745.0	10611.374023
745.7	5962.988770
746.5	8485.113281
747.4	6517.841309
748.3	6170.637695
749.4	9935.499023
750.4	13395.789063
751.2	6414.616211
752.2	6921.250488
752.7	7532.306152
753.3	18562.894531
754.2	10256.711914
755.4	6265.688965
756.1	4709.623535
757.0	6254.606934
757.6	361.293854
758.2	5006.645508
759.5	4461.815430
760.2	1743.628174
760.7	1556.525757
761.6	228162.015625
762.6	65038.187500
763.1	36076.085938
763.8	23506.375000
764.6	8934.965820
765.4	10405.041016
766.3	4680.457520
767.6	9607.578125
768.5	5825.458008
769.3	7506.839844
770.3	1090.983398
771.7	8526.057617
772.4	5538.215820
773.5	9340.566406
774.5	11034.041016
775.1	5981.196289
775.8	2600.181152
776.4	4381.001953
777.5	23845.525391
778.3	9867.916016
779.5	515842.687500
780.4	217666.843750
781.4	90820.898438
782.2	21395.066406
783.0	13311.742188
783.6	8354.347656
784.5	4386.025391
785.2	7524.154785
785.8	3277.207031
786.3	5096.826172
787.2	9389.312500
788.4	3007.114746
789.1	10233.155273
790.0	19737.810547
791.0	6688.180176
792.2	13958.500000
793.2	12429.280273
794.1	1280.776978
795.3	9365.531250
796.0	6498.521973
796.8	6614.793945
797.5	7084.418457
798.1	4962.404297
799.4	3196.520996
800.4	5895.491699
801.5	6495.286621
802.6	7348.734375
803.4	12129.117188
804.2	7510.096191
805.0	1937.133545
805.6	6648.784180
806.4	8544.165039
807.4	3483.679932
808.8	9159.080078
809.5	2181.176758
810.1	4261.391113
811.5	10216.822266
812.7	10870.053711
813.4	3486.045898
814.3	5854.709961
815.4	11446.086914
816.4	638.130066
817.4	27357.482422
818.3	9068.191406
819.0	10920.540039
820.0	8574.291992
820.9	7629.763184
821.7	17794.212891
823.0	16936.146484
823.8	9514.086914
824.5	17730.486328
825.4	3363.841553
826.4	6610.241211
827.3	17567.271484
828.2	9868.241211
829.3	9428.425781
829.9	9209.162109
831.2	22986.326172
832.0	9568.247070
832.6	3567.892822
833.4	114266.328125
834.2	80946.500000
835.5	3026470.750000
836.5	1677737.375000
837.5	550236.000000
838.5	99897.757813
839.3	55064.539063
840.0	14873.972656
841.1	29776.146484
842.1	15793.489258
842.7	6967.767090
843.5	3938.275391
844.4	3341.691162
845.5	2931.220215
846.2	1895.483643
846.9	4099.038086
847.6	5188.826660
848.6	15422.674805
849.6	24400.982422
850.3	16880.498047
851.4	71723.921875
852.3	134050.765625
853.1	92331.429688
853.8	81042.960938
854.6	27277.068359
855.5	15339.154297
856.4	10791.120117
857.4	51645.367188
858.4	32890.730469
859.1	18730.921875
859.9	13705.322266
861.0	11011.074219
861.7	14549.175781
862.8	6537.210449
863.3	4124.949707
863.8	545.918640
864.6	6623.099609
865.4	3677.724854
866.2	5542.463379
867.4	16908.232422
868.7	9757.175781
869.3	7953.670410
870.1	16927.382813
871.3	10199.030273
872.2	4188.746094
873.4	10634.948242
874.2	5518.770996
875.2	11640.705078
876.2	42407.652344
877.0	61074.968750
877.7	23752.259766
878.4	40666.417969
879.4	19335.416016
880.1	12246.809570
881.0	5180.341797
881.7	2621.773682
882.5	9965.410156
883.2	0.205843
884.5	6820.749512
885.3	1153.948975
886.4	8454.306641
887.0	33.677326
887.6	7781.093750
888.4	2072.254883
889.3	16570.466797
890.1	7865.738770
890.9	2481.814941
891.8	27153.935547
892.6	19741.162109
893.3	7981.588379
893.8	13171.175781
894.5	13271.882813
895.1	6224.505371
896.1	4071.363281
897.1	11382.952148
897.6	227.223694
898.4	9925.096680
899.3	4028.858154
900.0	3610.545410
900.6	1023.269348
901.4	6393.137695
902.3	2857.939453
903.2	1991.937012
904.1	4524.834961
905.2	2351.549805
905.7	7963.408691
906.6	4391.167969
907.3	22014.162109
908.3	5336.713379
908.8	1889.721680
909.6	5521.691406
910.2	6208.629395
911.1	738.027100
912.2	8415.486328
912.9	7055.652344
913.7	2718.636719
914.4	2642.622070
915.4	3507.493164
916.6	2280.939697
917.8	4603.703613
918.4	4557.937988
919.0	105.264488
919.7	3191.657227
920.4	364.027405
921.0	5059.062012
921.9	1477.602295
923.2	14694.693359
924.0	1264.219604
924.6	9601.997070
925.6	2084.935547
926.5	4146.975586
927.4	820.989807
928.3	4583.093750
929.2	1056.975952
930.1	4452.385254
931.2	243.967621
932.6	2597.762451
933.5	2256.554688
934.3	5709.631836
935.8	10742.829102
936.8	2550.804688
937.8	2788.976807
938.6	439.917755
939.5	7693.640625
940.6	1845.155273
941.3	14092.126953
942.1	826.981262
942.7	699.386230
943.6	1065.236328
944.7	798.723511
945.3	1796.406128
946.4	4643.773438
947.3	6057.537109
948.2	5643.397461
949.0	1568.490723
949.9	485.164276
950.4	2634.890625
951.5	6028.369141
952.4	213.949692
953.3	3641.763428
954.4	3931.895264
955.6	2566.084717
956.4	3480.463135
957.0	603.248230
957.6	1944.202148
958.7	2497.466064
959.2	597.857422
960.2	3122.090332
961.2	2898.616455
962.2	124.577034
963.5	6266.077148
964.3	9869.507813
965.0	12008.209961
966.5	4859.680664
967.1	451.486115
967.8	3.770071
968.4	3243.377930
969.4	2973.940186
970.0	1395.736816
971.3	3965.152588
972.0	4312.890137
972.6	2517.068359
973.4	4979.331055
974.2	8772.431641
975.4	1600.462646
976.0	309.831238
976.7	2170.614990
977.6	5630.992676
978.6	6774.955078
979.3	812.260803
979.8	2233.663574
980.6	1240.439819
981.3	98.223061
982.0	0.040759
982.9	860.304260
983.4	3842.640381
984.1	221.072571
985.1	2951.047607
986.4	699.443848
987.0	1114.483276
988.5	1292.604126
989.2	1.765819
989.7	2966.302490
990.2	447.091034
991.4	6309.034180
992.3	2841.989502
993.6	5412.433594
994.7	2754.878662
995.6	12070.649414
996.3	1606.670044
996.8	1195.532227
997.6	763.410889
998.4	174.775513
998.9	7563.568848
1000.2	1195.620728
1000.8	0.173675
1001.5	2139.179443
1002.5	8531.010742
1003.2	1030.502197
1004.4	1667.451416
1005.0	3491.148193
1005.7	3214.371826
1006.4	764.706055
1007.2	164.247375
1007.7	8054.322754
1008.6	4130.669922
1009.6	816.897095
1010.4	0.055508
1011.0	9516.915039
1011.9	0.200855
1012.5	193.992340
1013.3	6875.715820
1014.7	653.676636
1015.8	614.266663
1016.3	0.769774
1017.2	971.032898
1018.1	786.829102
1019.3	0.077962
1020.4	1823.900391
1022.1	7449.180176
1023.7	3910.565918
1025.0	3334.936279
1025.5	0.323184
1026.2	303.123993
1026.9	1753.933960
1027.8	4945.422852
1029.1	1233.302246
1030.4	1.582282
1031.3	1605.918945
1032.3	490.373474
1033.3	982.543701
1034.4	859.806396
1035.1	474.247253
1036.0	794.834167
1036.7	159.076859
1037.5	12.039772
1038.0	230.183548
1039.5	1521.232300
1040.5	1599.963867
1041.2	3543.646973
1041.8	0.157945
1042.7	0.051745
1043.9	2708.113525
1045.6	5182.623535
1046.4	481.713654
1047.2	2426.824951
1047.9	332.009827
1048.4	587.299072
1049.7	12620.935547
1050.6	2388.244385
1051.4	2938.238037
1052.2	2979.249268
1053.1	1510.989258
1054.3	1279.747314
1055.4	1073.701172
1056.7	8597.916016
1057.6	91263.570313
1058.4	89392.984375
1059.2	45702.355469
1059.8	18168.583984
1060.6	10054.936523
1061.6	579.596680
1062.3	5019.216309
1063.0	1535.478394
1064.0	0.371171
1064.9	795.369507
1066.2	4570.286133
1066.9	245.523041
1068.1	846.668396
1068.7	0.043323
1069.2	3959.886230
1070.3	2114.565430
1071.8	2801.314453
1072.4	2296.100098
1073.4	863.064636
1074.1	615.548706
1075.4	1874.273926
1076.0	563.650635
1077.0	9142.911133
1077.7	2375.109131
1078.6	338.680084
1079.6	136.920532
1080.6	384.408020
1081.4	122.722816
1081.9	0.112763
1082.5	3806.626953
1083.1	278.727325
1083.8	5985.679688
1084.5	527.547729
1085.3	1244.204102
1086.0	1484.331787
1086.7	73.286186
1087.6	8349.136719
1088.6	2.583955
1089.4	1538.324585
1089.9	420.371613
1091.1	1994.018677
1091.6	2195.584717
1092.5	920.107788
1093.2	2442.972900
1093.9	4.207855
1094.6	4669.486816
1095.6	11747.117188
1096.7	5681.190918
1097.3	196.919128
1098.3	1106.905640
1099.4	3942.401367
1100.0	421.972565
1100.7	7264.257324
1101.5	373.433289
1102.3	110.980286
1103.2	2593.094482
1104.2	1409.280884
1104.7	129.780594
1105.8	276.226959
1106.7	77.391045
1108.3	950.669006
1109.4	1444.986572
1110.3	3.458765
1111.6	22054.816406
1112.8	86218.609375
1113.8	833585.062500
1114.8	644316.187500
1115.7	307531.187500
1116.8	103838.601563
1117.9	20930.058594
1118.7	9328.895508
1119.5	1688.590942
1120.2	2525.530518
1122.0	8748.958984
1122.6	1584.524048
1123.4	2800.258301
1124.3	2368.285156
1125.4	1024.315186
1126.1	435.177307
1126.9	5388.475586
1127.5	2646.537842
1128.3	2463.073975
1129.1	14913.919922
1130.1	19567.085938
1130.9	25511.791016
1131.8	34972.847656
1132.8	23154.375000
1133.8	13698.130859
1134.6	5105.237793
1135.8	10151.016602
1137.2	4311.668457
1138.0	552.786865
1138.8	88.156532
1139.9	1817.729736
1140.5	0.125114
1141.3	1725.769653
1142.0	4663.696289
1143.0	0.220879
1143.7	978.659424
1144.5	0.000000
1145.1	649.396484
1146.3	202.109238
1147.2	1873.852783
1148.4	235.458847
1148.9	2955.803467
1149.7	5432.418457
1150.8	7465.457031
1151.5	1351.992554
1152.0	573.657227
1153.0	4259.168945
1153.9	4643.863281
1154.6	16191.726563
1155.2	6852.534668
1155.7	9926.270508
1156.3	7829.560547
1156.9	10377.077148
1157.9	4285.563477
1159.0	951.944763
1159.5	1280.102661
1160.7	4019.124023
1161.8	300.689301
1162.6	769.055542
1163.6	532.459106
1165.1	360.960663
1165.7	1850.859131
1167.7	5144.055176
1168.7	17806.349609
1169.7	23935.484375
1170.5	26230.828125
1171.2	22672.962891
1171.9	17714.238281
1172.8	14158.791992
1173.6	10765.550781
1174.6	736.744080
1175.6	1589.341553
1176.7	2614.933594
1177.4	0.084912
1178.4	0.074781
1179.2	3233.964111
1179.7	0.198285
1180.9	150.787949
1182.5	4238.792969
1183.0	2603.872803
1184.0	347.411865
1184.8	2949.679688
1185.8	1681.802734
1186.8	972.733582
1187.5	1786.988770
1188.2	0.372910
1189.1	180.501282
1189.8	485.714722
1190.9	1727.512329
1191.6	0.018301
1192.3	0.000000
1193.3	2317.229004
1194.1	1322.778564
1194.8	3297.461426
1195.6	4266.425293
1196.6	3394.804443
1197.4	2179.227539
1198.1	1000.674622
1198.8	0.009566
1199.8	953.677979
