URL	chrom://pc-3vxg514/ChromeleonLocal/Data/2024/2024_w23.seq/118.smp/ISQEC.xraw
Channel	UV_VIS_2

Injection Information:
Data Vault	ChromeleonLocal
Sequence	2024_w23
Name	photo-ODIBO
Number	61
Position	GE5
Comment	
Processing Method	General_ILK
Instrument Method	5-100pct_positive_3min
Type	Calibration Standard
Status	Finished
Inject Time	6/5/2024 11:38:15 AM +02:00
Volume (µl)	2.0000
Dilution Factor	1.0000
Weight	1.0000

Raw Data Information:
Data Points	1250
Mass Min. (m/z)	100.000000
Mass Max. (m/z)	1200.092545
Retention Time (min)	2.072732
Mass Resolution	0.500000
Tolerance Unit	Amu
Scan Number	929
Scan Type	+ c ESI sid=20.00 Full ms [100.000-1200.000]
Is Centroid Scan	True
Base Peak Mass	307.197449
Base Peak Intensity	55935224.000000
Total Ion Count	170409062.547693

Raw Data:
Mass (m/z)	Value (counts)
100.4	81606.820313
101.1	775818.500000
102.2	44599.054688
103.0	6129.587891
103.5	4061.875488
105.1	4455741.000000
106.2	161049.796875
107.1	3415.915771
108.3	393.510742
108.9	550.174133
109.9	1219.213013
110.7	784.393860
111.5	507.374207
112.9	1065.978027
113.5	964.494202
114.3	3024.203613
114.8	1427.720825
115.4	1802.307617
116.1	123.844353
117.1	0.114671
118.1	46812.429688
119.1	5333.947266
120.1	3559.234619
120.8	26477.482422
121.6	15204.608398
122.2	57153.074219
123.3	12995.828125
125.1	2161.229736
126.0	0.073454
126.6	0.050833
127.2	0.188570
127.9	3399.803711
128.6	5714.574219
129.3	3869.583496
130.2	198384.750000
131.2	33317.843750
132.0	5607.128418
132.6	522.986633
133.3	0.339547
133.8	0.101276
134.4	1.340769
135.2	709.681152
136.2	20678.304688
136.7	1226.163330
137.5	7.855944
138.4	0.022209
139.0	1610.995483
139.9	4083.981201
140.9	9403.472656
141.7	6034.474121
142.5	6960.256348
143.2	112.584846
144.8	14259.911133
145.7	271780.031250
146.3	387343.968750
147.2	29783.957031
148.1	6548.375000
149.7	7011.162109
150.4	9859.542969
151.5	10126.377930
152.0	2499.704590
153.1	1083.424927
154.5	4717.388672
155.3	6266.683105
156.2	729.862671
157.5	2443.806152
158.2	812.470032
158.7	3.605124
159.5	5005.053223
160.2	4303.418457
161.1	1752.643311
162.2	1194.781006
163.3	24526.802734
164.0	8959.653320
165.1	7872.184082
165.8	420.446075
166.4	32.868511
167.2	0.006032
168.4	457.829590
169.2	8.503088
170.2	0.052628
170.7	1683.684204
171.3	1588.081665
172.4	835.177673
173.7	235.091141
175.2	6228.830566
175.8	483.680176
176.4	2418.189209
177.3	3300.423584
178.0	6518.901855
178.6	5840.909668
179.3	122.436234
181.0	8346.487305
182.2	4863.120605
182.9	761.322083
183.5	84.000259
184.4	119.541267
185.2	303.962738
186.4	2055.289795
187.4	1377.285400
188.1	2104.963379
188.9	681.786194
190.0	2432.786377
190.7	1277.397461
191.3	0.473858
192.1	11505.704102
194.1	51709.535156
195.3	4014.690674
196.3	599.209473
197.4	0.414759
198.5	402.256226
199.3	3922.777588
199.9	512.947998
200.7	0.065990
201.3	627.159058
201.9	0.008983
203.2	1956.193359
204.1	3338.747314
204.8	0.124275
205.5	0.077501
206.1	846.152466
207.0	4545.539551
208.4	3021.029541
209.0	2885.859863
209.5	140.230011
211.1	1623.710938
212.1	3439.565430
213.0	5735.223633
213.6	2636.581299
214.1	7831.229492
215.1	2733.827881
215.6	1588.371216
216.2	9965.120117
217.4	547.805969
218.0	3828.056152
218.6	0.317277
219.2	407.408234
220.1	0.087860
221.2	2352.419678
221.8	22018.033203
222.3	95289.484375
223.2	8420.296875
224.1	178463.812500
224.7	10345.071289
225.2	44403.585938
226.1	10656.067383
227.1	4482.676270
227.9	1187.689331
228.6	5239.091797
229.3	0.347346
230.0	352.499908
231.2	0.072804
232.3	3529.664307
233.0	380.959442
233.6	5357.770020
234.5	11.969710
235.3	1.985407
236.1	6.821987
237.2	3020.375244
238.0	460.805023
238.9	6.829593
239.7	0.430416
240.5	0.006363
241.4	1357.301880
242.4	845.026550
243.0	224.077240
244.1	1753.241577
245.0	1206.554443
246.8	1116.594360
247.5	12.464323
248.4	0.065795
249.4	0.296626
250.2	919.178406
251.1	204.086304
251.7	0.449534
252.4	628.901001
253.1	2307.006836
254.1	4723.477539
254.8	5082.272461
255.8	3729.643555
256.8	1789.491943
258.1	2883.737305
259.2	1805.476685
259.7	0.132669
260.2	1123.955566
261.0	0.316037
261.8	0.614787
263.1	8090.039551
263.9	4566.485352
265.1	14125.948242
266.0	4934.330078
266.8	1734.844849
267.6	0.320189
268.4	1203.739502
269.3	6569.867188
270.0	125.308762
270.8	3432.781006
272.1	0.628801
272.9	684.216980
273.8	1593.471924
274.4	1816.753174
275.1	1376.398926
275.9	0.246815
277.0	6942.225586
278.3	1123.190063
279.1	9959.634766
280.1	6564.966797
281.6	2820.646484
282.5	466.839478
283.2	1017.838318
283.7	0.244060
284.4	0.017255
285.1	1185.228760
286.0	0.005454
287.0	3244.176025
288.3	4525.485840
289.2	1510.294189
290.1	2841.046143
290.7	1405.827026
291.9	8.844156
293.0	0.460997
293.6	0.115034
294.3	11.941548
295.3	589.488159
296.8	239.785767
297.3	3824.844238
298.4	1849.440308
300.4	952.618225
301.6	2656.645752
302.2	42652.359375
302.9	13500.164063
303.6	1065.072266
304.3	4.755980
305.2	2746.270752
307.2	55935224.000000
308.3	11408699.000000
309.4	844747.750000
310.2	162802.406250
311.3	10094.156250
311.9	0.352683
312.8	125.170769
313.5	4456.736816
314.0	1584.488525
314.6	0.359286
315.3	1498.807617
316.1	3888.272949
316.9	2091.837646
317.5	0.361730
318.3	2506.520996
319.3	2298.309082
320.0	81.435982
321.3	169.191437
322.3	2836.164063
323.6	8462.386719
324.3	1291.698242
325.1	49275.660156
326.2	14846.775391
327.3	3420.881348
328.0	0.003805
328.9	4460.325684
329.5	4718.611328
330.5	0.117840
331.1	410.073975
332.5	2223.513672
333.7	0.039419
334.5	0.343711
335.2	1825.090576
336.2	1078.003540
336.7	0.823294
337.9	450.895355
338.8	3425.614502
339.4	967.924683
340.2	3925.106689
342.3	753.217712
343.2	27304.408203
344.3	7182.793457
345.1	10149.570313
346.0	20553.296875
346.7	4722.191895
348.2	33912560.000000
349.3	8565802.000000
350.4	799352.625000
351.3	82990.218750
352.2	21885.798828
353.3	8.119301
354.3	51657.980469
355.1	9123.354492
355.9	4927.381348
356.4	2775.743896
357.4	664.283325
358.4	0.199854
359.3	2986.184326
360.2	8809.757813
362.0	2408.348389
363.2	5064.273926
363.9	417.694092
364.9	3320.998291
366.0	7552.631836
367.1	2032.009521
368.1	4940.744629
369.2	933.714783
370.2	852817.250000
371.3	178815.281250
372.2	23495.087891
373.2	2447.555176
373.8	0.734651
374.3	5900.913574
374.8	1562.527344
375.4	2438.390381
375.9	0.142074
376.6	1691.814087
377.3	1573.666138
377.9	0.516097
379.2	541.841064
380.3	35.054413
381.0	0.089452
382.3	1403.172241
383.3	4023.720703
384.3	1.065453
386.0	14238.554688
387.1	4493.720215
388.2	2869.870361
389.1	3025.576172
390.3	4577.190918
391.5	2310.886475
392.1	421.159180
392.7	0.337994
393.3	1294.013550
395.3	1916.026367
396.0	7674.706055
396.6	0.462940
397.2	658.433838
398.1	2814.597168
399.2	41.163830
400.1	0.074468
400.9	0.084497
401.4	223.912521
402.0	0.049134
402.9	0.142603
404.0	1803.924927
404.5	762.419739
406.0	3616.867676
407.2	3014.295166
408.1	88.779655
408.9	3429.083740
409.6	0.252266
410.2	1479.216431
411.0	71140.625000
411.9	32012.673828
412.5	13619.772461
413.2	12673.332031
414.3	11247.666016
415.1	2356.504639
416.2	0.239519
417.3	413.977570
418.2	48.581669
419.1	4354.778320
419.7	101.827789
420.9	141.022293
421.5	63.295105
422.5	2543.736328
423.4	119.260689
424.2	0.484433
425.3	3718.636475
426.2	3245.531982
427.4	2345.955811
428.1	0.523451
428.9	0.073850
430.1	8067.441895
431.4	10203.142578
432.2	5357.302246
433.3	8713.500000
434.0	4646.459961
434.7	2006.734741
435.5	2862.456299
436.2	2060.220947
437.3	2290.265869
438.4	3735.751709
439.6	1060.891235
440.1	2842.762695
441.4	43.253609
443.1	107528.546875
443.9	35688.968750
444.7	19790.607422
445.3	31085.027344
446.4	10278.018555
447.2	2773.102051
448.0	6436.477539
448.6	7884.975098
450.1	3401.929199
451.0	715.250671
451.6	116.465691
452.2	5234.148438
453.3	8427.211914
454.0	1583.827393
454.8	1264.594116
456.2	49.514111
457.3	480.705963
458.4	3288.483398
459.1	4950.814941
460.4	340.511230
461.4	2430.283936
462.0	1879.259766
462.7	2889.462891
463.7	0.104907
464.3	3402.266602
465.2	228310.484375
466.1	65231.746094
467.3	68663.343750
468.2	24880.496094
469.1	4820.424316
470.2	3750.868652
471.3	4884.736816
471.8	948.858765
473.0	3430.953857
473.7	112.192520
475.0	4841.680664
476.5	11064.983398
477.5	4121.242676
478.4	7566.037598
479.1	44549.542969
480.3	30376.509766
481.1	37811.070313
482.1	24333.058594
483.2	20852.138672
484.1	13692.426758
485.1	7532.774902
485.7	7157.770996
486.4	3010.787354
487.4	3154.969482
488.2	12362.347656
489.2	45285.644531
489.8	10999.124023
490.6	7120.623047
491.3	10347.073242
492.1	3094.364258
493.2	33514.753906
493.8	5700.780273
494.3	4698.585449
495.5	8389.985352
496.4	579.621399
497.0	1549.662720
497.9	4474.152832
499.2	11354.898438
500.0	380.373535
501.0	5828.057129
502.1	3715.576660
503.0	2122.656738
503.8	839.375488
504.4	1086.613403
506.0	13126.042969
507.2	87177.359375
507.9	146618.093750
508.5	95877.890625
509.7	18198.208984
510.8	6086.644043
511.6	5506.920898
512.7	6226.223633
513.7	22.003916
515.3	9.198187
516.3	6953.614746
517.1	24330.115234
518.2	6529.436523
519.1	10102.658203
519.8	6731.399902
520.7	8063.083984
521.2	8953.333984
522.7	2793.211182
523.5	2610.249512
524.7	7753.860840
525.3	2569.626953
526.2	2692.541504
526.7	18.305046
527.4	7711.691406
528.3	13623.440430
528.8	5156.169922
529.6	13121.464844
530.2	4122.961426
531.1	117143.789063
531.9	37466.187500
532.5	10840.774414
533.1	35865.421875
533.7	16845.363281
534.4	20775.824219
535.3	4135.814941
536.3	2014.610962
537.1	640.887085
537.6	1235.048828
538.3	1571.217896
539.0	10324.928711
540.1	6087.541504
540.8	3537.343994
541.5	0.578419
542.0	0.245805
543.2	4138.015625
544.2	3718.024902
545.1	6877.433594
546.0	6316.483887
547.1	3563.222412
548.3	6967.527832
549.0	7551.379395
550.3	1511.040039
551.2	7435.208496
552.3	9711.246094
553.2	380331.718750
554.3	71035.101563
555.2	169340.656250
556.2	32367.125000
556.9	9788.953125
557.6	7406.888672
559.1	7317.480469
559.7	3059.745117
560.4	130684.867188
561.3	55409.347656
562.3	40320.839844
563.6	4736.958008
564.5	5162.803711
565.3	5362.410156
566.5	0.607479
567.4	3835.811035
568.2	11869.930664
569.0	37245.250000
570.0	10378.380859
570.9	8138.789063
571.6	17532.962891
572.4	1915.154907
572.9	2840.715820
574.1	6319.247559
575.1	2888.672363
575.6	89.198822
576.6	0.407169
577.1	7490.375977
577.7	636.883728
579.1	8838.454102
580.3	11760.611328
581.0	10190.224609
581.9	7394.384277
583.1	8610.278320
583.9	2386.943604
584.9	5382.010254
586.1	2424.671631
586.9	4814.964355
587.9	1733.132568
589.3	2427.293213
589.9	1583.047974
590.5	1154.582153
591.2	4240.530273
591.8	4598.636230
592.4	4718.900879
593.3	15938.616211
594.4	16548.218750
595.4	10642.148438
596.4	3014.201904
597.4	2530.157959
598.4	3401.434326
599.1	29743.609375
599.6	57197.359375
600.4	55005.089844
601.6	7500.646973
602.2	0.364774
603.2	9132.750000
603.7	2546.881836
604.6	3884.449951
605.2	1667.944214
606.2	1802.979614
607.2	3751.931885
608.1	2865.426025
609.0	4927.357422
609.8	0.031421
611.1	5307.188477
611.7	7578.760742
613.3	16694064.000000
614.3	7913781.500000
615.4	1744895.375000
616.5	258330.062500
617.4	39110.003906
618.0	6894.318359
618.8	3718.312988
619.7	3356.868652
620.4	12530.744141
621.1	22536.236328
622.3	4807.137695
623.0	13.620294
623.7	16952.921875
624.6	242161.000000
625.6	147431.609375
626.4	14952.660156
627.0	10664.395508
628.0	4018.717041
628.6	952.062195
629.3	1186.166870
630.4	582.309448
631.5	435.162354
632.5	15703.164063
633.5	5377.201172
634.7	25268.964844
635.3	105016.273438
636.3	60672.417969
637.2	7846.812988
638.1	18342.738281
638.7	28405.175781
640.1	3594923.500000
641.0	5841460.500000
642.7	66659.742188
643.8	57160.277344
644.6	60503.917969
645.3	44314.007813
646.1	17720.544922
646.9	9352.135742
647.6	4497.385742
648.7	29490.332031
649.7	20779.880859
650.3	4890.005859
651.2	3255.124512
651.7	0.717822
652.8	66087.062500
653.7	45473.257813
654.5	9563.875977
655.1	9348.076172
655.9	2811.849121
656.6	0.643399
657.7	66443.562500
658.6	67005.031250
659.3	43117.484375
659.9	44717.335938
660.8	378975.593750
661.6	377359.593750
662.4	383761.718750
663.2	132605.031250
663.9	73345.906250
664.8	21492.673828
665.6	6356.918945
666.4	2360.581055
667.5	3716.447998
668.7	8921.020508
669.4	704.117920
670.4	7896.092285
671.5	6291.496582
672.6	2739.381592
673.3	8418.058594
674.0	1764.702881
674.5	4483.455566
675.5	13961.498047
676.3	14955.596680
677.5	8716.946289
678.2	4520.790039
679.5	378.102661
680.2	594.360107
681.6	7905.113770
682.4	8884.464844
683.1	3196.926270
683.7	30.882942
684.3	0.095115
685.1	2558.573975
685.9	3605.635254
687.4	5749.781738
688.5	0.071504
689.4	2558.703613
690.1	2889.042969
690.9	4271.755371
692.4	10141.520508
693.1	2705.485107
693.9	3553.531738
694.9	5962.927734
696.1	5996.017090
696.8	2001.409424
697.4	3173.347412
698.2	3864.541504
699.0	2818.443359
699.7	0.930750
700.6	5561.316406
701.6	2577.845459
702.3	15293.353516
703.2	8135.424316
704.2	4020.214844
705.2	7240.198730
705.8	764.231995
706.8	1642.732178
707.9	5847.633789
709.4	6992.388672
710.6	3211.422607
711.2	4200.261230
712.3	1879.149414
713.2	12097.069336
713.9	6375.391602
714.5	8517.908203
715.4	1162.824707
715.9	765.351624
716.6	370.642914
717.3	2215.445313
717.9	1.589282
718.8	4562.380859
719.7	16684.873047
720.6	23853.130859
721.8	10665.659180
722.4	7334.625000
723.3	1677.124512
724.0	2706.371582
724.8	5687.845215
725.6	5119.743164
726.7	15630.387695
727.3	18197.726563
728.2	9667.885742
728.7	1109.541748
730.2	23195.449219
731.2	9026.423828
731.9	3057.307861
733.2	5907.586914
734.0	695.851074
734.7	0.020026
735.4	2333.073486
736.4	1692.597900
737.3	3045.096680
738.3	6897.496094
739.4	8111.457520
740.2	3846.155029
740.9	5826.895020
741.6	6729.644531
742.4	4013.465820
743.2	2539.906494
744.2	49967.984375
745.2	30693.103516
746.2	18786.443359
746.9	4249.371094
747.8	6556.609863
748.5	12651.337891
749.3	11847.536133
750.1	8560.103516
751.1	8326.412109
752.3	26848.527344
753.0	13576.450195
753.8	42924.750000
754.4	29841.503906
755.3	22300.419922
756.1	11906.041992
757.1	2290.828369
757.9	4906.143555
758.5	4097.128906
759.5	12436.435547
760.5	5208.473145
761.3	4545.971191
762.2	11.903203
762.8	1205.568604
763.5	0.033087
764.1	3057.780762
765.0	2336.818604
766.0	3522.496094
766.7	231.932693
767.3	414.237854
767.9	7.695663
768.4	1085.683228
769.1	1681.365845
770.2	81.305405
771.4	10084.801758
772.5	7387.632813
773.2	1382.363892
773.8	8907.663086
774.5	625.416321
775.3	1150.147217
776.6	11940.789063
777.3	26259.564453
777.9	81703.515625
778.8	38415.128906
779.8	22385.652344
780.9	3321.541016
781.8	45.047218
782.5	928.633484
783.5	4921.826172
784.1	427.082123
785.5	486808.656250
786.2	250384.625000
786.8	131343.515625
787.5	52166.472656
788.2	5360.376953
789.2	6653.123047
790.3	10173.731445
791.0	5841.496094
792.2	37189.648438
793.2	424192.156250
794.0	969893.562500
794.6	836352.812500
795.2	583605.937500
795.8	809676.500000
796.5	174806.593750
797.1	94428.437500
797.8	47852.441406
798.6	17538.953125
799.4	3803.717773
800.2	15526.554688
801.2	14767.432617
802.3	2359.711182
803.2	6087.368652
804.0	8344.512695
804.6	3122.447021
805.1	10089.868164
805.7	9846.096680
806.8	13767.741211
807.3	174.016800
808.9	6639.452637
809.6	11626.277344
810.2	153.521179
811.2	19117.906250
811.7	21248.300781
812.7	5928.649414
814.1	2612.932861
814.8	2056.299316
815.9	1055.300415
816.9	217.070679
818.0	0.267948
819.4	8468.842773
820.2	14183.264648
821.5	5939.630859
822.3	917.592102
822.9	5773.871582
823.8	1206.049805
824.6	5083.841797
825.2	166.771652
825.8	3500.250732
826.7	0.123987
827.4	2639.330322
828.8	443.027771
829.6	0.056020
830.4	391.287872
831.3	334.329529
832.0	44.278217
833.1	4877.878906
833.9	8047.746094
834.8	5592.166504
835.6	4190.156738
836.5	1508.174561
837.1	2039.264648
838.0	3992.558594
838.6	10641.070313
839.2	9386.079102
839.8	2730.960205
840.5	3027.402100
841.3	9133.567383
842.1	9520.507813
842.9	2926.346924
843.6	1960.695068
844.3	10228.987305
845.4	10352.750000
846.3	19894.904297
847.2	9737.150391
848.2	7839.330566
848.8	452.134979
849.6	5839.852051
850.4	16678.785156
851.9	3678.613770
852.6	140.127258
853.2	9332.985352
853.7	466.006195
854.3	469.912659
854.9	3835.278809
855.5	756.586975
856.3	3734.276123
857.2	1214.103271
857.9	8147.412109
858.7	9406.878906
859.5	12652.581055
860.3	12537.943359
861.8	16336.394531
862.5	7852.787109
863.5	3594.565430
864.4	3691.902832
865.2	6909.573242
866.4	11663.136719
867.2	1519.135742
868.2	16.564356
868.8	7726.335449
869.7	1987.937500
870.8	3705.393555
871.6	4036.235107
872.4	2507.570068
874.0	3677.802490
874.7	609.912048
875.5	6105.212891
876.2	1789.053467
876.8	393.660309
877.5	7061.559082
878.2	2733.423340
879.0	2266.759033
880.3	671.526794
881.3	8148.733887
881.9	0.315908
882.8	651.074707
883.5	3285.477295
884.8	2670.474365
885.6	5159.697266
886.1	2991.722900
887.4	4673.643066
888.8	0.115668
889.5	1406.151489
890.6	13759.270508
891.5	512.333374
893.0	286.388275
894.2	2049.645996
895.5	2053.445313
896.6	0.082676
897.1	0.277720
898.2	4609.197754
898.9	1249.677734
899.7	6030.525391
900.3	0.400563
901.5	0.029348
902.9	1536.695557
903.9	1778.065918
904.6	2039.969360
905.2	219.515976
906.2	876.930359
907.2	744.291626
907.8	1954.393677
908.5	7592.744141
909.4	1342.345093
910.0	42.835869
910.8	7070.071289
911.6	1511.972412
912.3	655.675537
913.1	5036.073242
914.2	511.937622
914.9	0.320358
915.6	1057.151733
917.1	2250.683594
917.7	3294.322510
918.6	1292.847778
919.4	328.431519
920.3	260.025482
921.2	20.415564
922.0	1291.135620
922.8	2127.235352
923.5	1046.800781
924.7	2414.852295
925.9	2376.292236
927.4	2280.492432
928.2	0.747846
929.6	9128.630859
930.3	2642.243408
932.0	8665.287109
933.1	662.535095
933.7	5709.187988
935.1	1158.002441
936.0	2853.635742
936.9	2590.045654
937.4	129.483261
938.5	2679.277344
939.3	20581.548828
939.9	9898.791992
940.5	13828.814453
941.4	13854.708984
942.2	5073.529785
943.0	5374.607910
944.2	6399.667480
945.0	1137.640747
945.8	6141.674805
946.5	2059.457031
947.2	6667.673828
947.7	230.126221
948.3	4635.737305
949.4	3369.219971
950.4	1268.982422
951.3	0.104371
952.5	923.412781
953.2	5106.737793
954.1	5396.874023
955.0	3896.255615
955.9	3215.272461
956.8	129.950897
957.7	6002.892578
958.4	0.201226
959.6	40.880577
960.6	8.562512
961.4	1675.774658
962.0	1920.463379
962.7	14.840791
963.7	599.192993
964.9	2205.007080
966.1	916.103699
966.9	3575.021484
967.7	4177.729980
968.2	0.071530
969.0	4122.208008
969.9	359.481689
970.9	119.887566
971.5	2.502472
972.4	819.843933
973.1	0.294021
973.8	3316.634277
974.6	5205.796387
975.9	957.893005
977.1	6632.460938
978.0	4463.603516
979.1	218.003571
979.9	0.002260
980.5	5.987160
981.3	1909.332275
982.2	0.013068
983.2	392.724579
983.7	13.641271
984.7	3686.734375
985.9	4337.908691
987.0	2.544563
987.6	1030.923340
988.3	1123.290405
989.1	6333.517578
990.1	760.048950
990.7	1162.421143
991.4	3149.467529
992.1	547.882813
993.5	80.933334
994.1	1126.048706
994.9	923.417236
995.6	732.206482
996.3	3253.858643
997.0	0.005383
997.7	1329.298706
998.5	1557.045044
999.1	4320.039551
999.8	0.128776
1000.6	0.097235
1001.2	1062.659912
1001.9	1145.296875
1002.7	166.277084
1003.3	1195.307983
1003.9	254.929291
1004.5	536.963989
1005.1	1747.206055
1005.7	633.343262
1007.0	1879.569458
1007.5	782.501038
1008.1	1323.711548
1008.7	10758.496094
1009.6	11830.828125
1010.3	6638.050293
1010.9	1007.608704
1011.6	7302.846680
1012.2	1806.518677
1013.0	2736.247070
1013.6	467.485199
1014.7	8352.046875
1015.4	8.035107
1016.3	4931.744141
1017.4	5030.836914
1018.2	4691.791504
1019.4	18360.742188
1020.0	1911.770264
1020.9	858.170471
1021.4	1397.249756
1021.9	3451.395264
1022.8	510.780884
1023.7	2447.634521
1025.3	4638.895508
1025.9	6952.727051
1026.5	3555.450439
1027.4	0.000001
1028.9	1640.195557
1030.6	1429.106812
1031.3	7066.818848
1032.0	1197.862427
1032.6	3489.464355
1033.3	709.544434
1034.1	888.573486
1034.8	1172.553833
1035.7	4537.514160
1036.2	731.047852
1037.3	854.912476
1038.2	836.470947
1039.2	159.295441
1040.4	1781.490845
1041.0	7.099700
1041.7	316.492554
1042.3	523.696167
1042.9	2681.463867
1044.0	0.000005
1045.2	1537.593384
1045.9	0.023338
1046.7	0.055731
1047.2	1807.876099
1047.9	3266.199219
1048.6	131.896759
1049.3	2560.701172
1050.0	255.783966
1051.1	1027.867676
1052.0	9148.654297
1052.6	693.197693
1053.2	0.138425
1053.9	1226.954590
1055.2	3901.073730
1056.1	1088.960327
1056.6	4504.424316
1057.3	699.754272
1058.0	10.857264
1059.5	1738.755859
1060.4	0.000002
1061.1	2848.461914
1061.7	541.551758
1063.0	3127.588867
1063.9	0.043272
1064.5	0.000000
1065.1	0.002759
1066.0	377.413910
1066.9	1241.381348
1068.1	0.000034
1068.8	3046.917236
1069.8	1059.671875
1070.4	2973.362549
1071.0	4928.644043
1072.1	2867.760254
1072.8	0.008609
1073.4	0.064996
1074.0	0.074523
1074.6	0.221723
1075.2	12.795809
1076.0	0.025695
1076.8	97.213318
1077.3	167.366577
1078.0	8487.575195
1079.1	415.153717
1080.0	4179.898438
1080.9	252.632141
1081.5	160.144928
1082.0	4483.827637
1082.8	0.330610
1084.2	1937.829834
1085.3	3522.605713
1086.3	3966.352295
1087.4	4487.101074
1088.0	0.019099
1088.6	3832.652100
1089.5	0.000000
1091.0	1270.588257
1092.1	527.157654
1093.1	0.235796
1094.1	2406.571045
1095.3	2247.246338
1096.3	0.024491
1097.2	793.194214
1099.0	1.666921
1099.6	487.738312
1100.7	5937.111328
1101.8	485.164795
1103.2	1861.184692
1104.4	292.969147
1105.6	0.180609
1106.4	0.115470
1107.2	0.343330
1107.9	690.515198
1108.7	0.027991
1109.3	263.783051
1110.3	3662.556885
1111.0	0.539472
1111.8	0.000007
1112.5	3586.108398
1113.5	17778.820313
1114.2	1.673794
1115.0	6288.573730
1115.7	0.215698
1116.4	5233.305664
1117.0	2088.542725
1117.6	1562.963623
1118.3	0.111764
1118.9	395.536957
1120.1	1938.762085
1121.1	0.312890
1121.7	6067.567871
1122.4	959.031311
1123.4	3493.163330
1124.7	843.198547
1125.9	0.063426
1126.5	17.838572
1127.9	516.195313
1128.8	1497.478394
1129.7	0.025882
1130.5	514.914612
1131.0	0.002188
1131.8	0.000037
1133.2	10.029790
1133.8	996.525330
1134.4	2575.598877
1135.1	0.273138
1135.7	0.233257
1136.5	1159.510498
1137.4	0.555158
1138.1	0.089299
1139.3	0.005328
1140.2	150.253418
1141.4	502.750732
1142.1	0.012594
1142.8	0.005013
1143.4	139.551636
1145.0	1185.392090
1145.8	405.296204
1146.4	1844.442261
1147.1	24.324022
1147.8	0.167395
1149.0	0.312337
1150.6	3593.002930
1151.8	5940.312012
1152.4	1655.331787
1153.7	3546.433350
1154.5	296.633423
1155.4	155.105621
1156.7	0.000002
1157.8	2400.447754
1158.9	1026.211792
1159.8	2159.813477
1160.9	0.421084
1161.5	0.111224
1162.1	0.000072
1163.7	377.325226
1164.4	17.154497
1165.4	587.643127
1166.3	0.179443
1167.5	221.182922
1168.4	0.560665
1169.2	3184.220703
1171.1	1600.527954
1171.7	210.367264
1172.3	0.000005
1173.0	0.000008
1173.5	1407.214966
1174.6	442.313629
1175.7	234.376221
1176.8	413.750763
1177.5	0.000011
1178.1	144.577408
1179.2	0.149682
1179.7	0.515979
1180.9	418.485992
1181.5	1347.585571
1182.9	1662.617920
1183.7	991.199829
1184.4	173.384521
1185.6	5223.831543
1186.5	786.230408
1187.3	2962.843262
1188.3	793.221375
1189.2	2403.213623
1189.8	0.011860
1190.6	1440.471680
1191.7	0.000019
1192.6	0.000004
1194.0	1926.450439
1194.6	0.338339
1195.2	0.062438
1196.2	279.034088
1197.2	4492.446777
1197.8	49.340996
1198.5	1138.367798
1199.4	729.277649
1200.0	0.000314
