URL	chrom://pc-3vxg514/ChromeleonLocal/Data/2024/2024_w23.seq/944.smp/UV_VIS_2.channel/UV_VIS_2.chm
Channel	UV_VIS_2

Injection Information:
Data Vault	ChromeleonLocal
Sequence	2024_w23
Name	ODIBO_UV_90min
Number	67
Position	GE5
Comment	
Processing Method	General_ILK
Instrument Method	5-100pct_positive_3min
Type	Calibration Standard
Status	Finished
Inject Time	6/5/2024 1:55:24 PM +02:00
Volume (µl)	1.5000
Dilution Factor	1.0000
Weight	1.0000

Chromatogram Data Information:
Time Min. (min)	0.000000
Time Max. (min)	3.100000
Data Points	931
Detector	UV
Generating Data System	Chromeleon 7.3.2.11814
Exporting Data System	Chromeleon 7.3.2.0
Operator	Instrument Controller
Signal Quantity	Absorbance
Signal Unit	mAU
Signal Min.	-0.029004
Signal Max.	302.009123
Channel	UV_VIS_2
Driver Name	DAD3000.dll
Channel Type	Evaluation
Min. Step (s)	0.2
Max. Step (s)	0.2
Average Step (s)	0.2

Signal Parameter Information:
Signal Info	WVL:254 nm

Chromatogram Data:
Time (min)	Step (s)	Value (mAU)
0.000000	n.a.	0.000000
0.003333	0.2	-0.000042
0.006667	0.2	-0.000219
0.010000	0.2	-0.000455
0.013333	0.2	-0.000321
0.016667	0.2	0.000686
0.020000	0.2	0.002555
0.023333	0.2	0.004489
0.026667	0.2	0.005511
0.030000	0.2	0.005245
0.033333	0.2	0.003817
0.036667	0.2	0.001628
0.040000	0.2	-0.000562
0.043333	0.2	-0.002031
0.046667	0.2	-0.002609
0.050000	0.2	-0.002621
0.053333	0.2	-0.002581
0.056667	0.2	-0.002876
0.060000	0.2	-0.003383
0.063333	0.2	-0.003467
0.066667	0.2	-0.002708
0.070000	0.2	-0.001613
0.073333	0.2	-0.001065
0.076667	0.2	-0.001200
0.080000	0.2	-0.001556
0.083333	0.2	-0.001942
0.086667	0.2	-0.002385
0.090000	0.2	-0.002805
0.093333	0.2	-0.003318
0.096667	0.2	-0.004321
0.100000	0.2	-0.005969
0.103333	0.2	-0.007772
0.106667	0.2	-0.008826
0.110000	0.2	-0.008488
0.113333	0.2	-0.006762
0.116667	0.2	-0.003964
0.120000	0.2	-0.000066
0.123333	0.2	0.005420
0.126667	0.2	0.012950
0.130000	0.2	0.022281
0.133333	0.2	0.032098
0.136667	0.2	0.040455
0.140000	0.2	0.045702
0.143333	0.2	0.047121
0.146667	0.2	0.044897
0.150000	0.2	0.039739
0.153333	0.2	0.032708
0.156667	0.2	0.025072
0.160000	0.2	0.017914
0.163333	0.2	0.066704
0.166667	0.2	0.616256
0.170000	0.2	2.829349
0.173333	0.2	7.661167
0.176667	0.2	14.087438
0.180000	0.2	19.261694
0.183333	0.2	20.878320
0.186667	0.2	18.756688
0.190000	0.2	14.370025
0.193333	0.2	9.618475
0.196667	0.2	5.972458
0.200000	0.2	4.132677
0.203333	0.2	4.016779
0.206667	0.2	4.948847
0.210000	0.2	6.066269
0.213333	0.2	6.852658
0.216667	0.2	7.352918
0.220000	0.2	7.801499
0.223333	0.2	8.157138
0.226667	0.2	8.116264
0.230000	0.2	7.451905
0.233333	0.2	6.218847
0.236667	0.2	4.692822
0.240000	0.2	3.195000
0.243333	0.2	1.955921
0.246667	0.2	1.069948
0.250000	0.2	0.519053
0.253333	0.2	0.224268
0.256667	0.2	0.092836
0.260000	0.2	0.047290
0.263333	0.2	0.036152
0.266667	0.2	0.032282
0.270000	0.2	0.025749
0.273333	0.2	0.015953
0.276667	0.2	0.005622
0.280000	0.2	-0.002546
0.283333	0.2	-0.007270
0.286667	0.2	-0.008950
0.290000	0.2	-0.008987
0.293333	0.2	-0.008681
0.296667	0.2	-0.008841
0.300000	0.2	-0.009926
0.303333	0.2	-0.011899
0.306667	0.2	-0.014258
0.310000	0.2	-0.016490
0.313333	0.2	-0.018261
0.316667	0.2	-0.019303
0.320000	0.2	-0.019485
0.323333	0.2	-0.019064
0.326667	0.2	-0.018496
0.330000	0.2	-0.017929
0.333333	0.2	-0.017270
0.336667	0.2	-0.016770
0.340000	0.2	-0.016885
0.343333	0.2	-0.017483
0.346667	0.2	-0.017863
0.350000	0.2	-0.017598
0.353333	0.2	-0.016790
0.356667	0.2	-0.015521
0.360000	0.2	-0.013618
0.363333	0.2	-0.011162
0.366667	0.2	-0.008850
0.370000	0.2	-0.007541
0.373333	0.2	-0.007602
0.376667	0.2	-0.008900
0.380000	0.2	-0.011170
0.383333	0.2	-0.014139
0.386667	0.2	-0.017607
0.390000	0.2	-0.021343
0.393333	0.2	-0.024737
0.396667	0.2	-0.027079
0.400000	0.2	-0.028199
0.403333	0.2	-0.028383
0.406667	0.2	-0.027775
0.410000	0.2	-0.026289
0.413333	0.2	-0.024079
0.416667	0.2	-0.021695
0.420000	0.2	-0.019650
0.423333	0.2	-0.018237
0.426667	0.2	-0.017805
0.430000	0.2	-0.018655
0.433333	0.2	-0.020567
0.436667	0.2	-0.022884
0.440000	0.2	-0.025135
0.443333	0.2	-0.027142
0.446667	0.2	-0.028577
0.450000	0.2	-0.029004
0.453333	0.2	-0.028430
0.456667	0.2	-0.027344
0.460000	0.2	-0.026136
0.463333	0.2	-0.024906
0.466667	0.2	-0.023828
0.470000	0.2	-0.023265
0.473333	0.2	-0.023475
0.476667	0.2	-0.024282
0.480000	0.2	-0.025115
0.483333	0.2	-0.025458
0.486667	0.2	-0.025130
0.490000	0.2	-0.024226
0.493333	0.2	-0.022902
0.496667	0.2	-0.021202
0.500000	0.2	-0.019186
0.503333	0.2	-0.017107
0.506667	0.2	-0.015305
0.510000	0.2	-0.013974
0.513333	0.2	-0.013034
0.516667	0.2	-0.012369
0.520000	0.2	-0.011985
0.523333	0.2	-0.011702
0.526667	0.2	-0.011095
0.530000	0.2	-0.010063
0.533333	0.2	-0.009078
0.536667	0.2	-0.008636
0.540000	0.2	-0.008809
0.543333	0.2	-0.009433
0.546667	0.2	-0.010341
0.550000	0.2	-0.011387
0.553333	0.2	-0.012313
0.556667	0.2	-0.012751
0.560000	0.2	-0.012437
0.563333	0.2	-0.011068
0.566667	0.2	-0.008173
0.570000	0.2	-0.003708
0.573333	0.2	0.001525
0.576667	0.2	0.006426
0.580000	0.2	0.010352
0.583333	0.2	0.013132
0.586667	0.2	0.014716
0.590000	0.2	0.015108
0.593333	0.2	0.014477
0.596667	0.2	0.013227
0.600000	0.2	0.012023
0.603333	0.2	0.011630
0.606667	0.2	0.012369
0.610000	0.2	0.013838
0.613333	0.2	0.015644
0.616667	0.2	0.018037
0.620000	0.2	0.021430
0.623333	0.2	0.025756
0.626667	0.2	0.030469
0.630000	0.2	0.035043
0.633333	0.2	0.039614
0.636667	0.2	0.044930
0.640000	0.2	0.051488
0.643333	0.2	0.058866
0.646667	0.2	0.066020
0.650000	0.2	0.072332
0.653333	0.2	0.078248
0.656667	0.2	0.084591
0.660000	0.2	0.091699
0.663333	0.2	0.099626
0.666667	0.2	0.108540
0.670000	0.2	0.118561
0.673333	0.2	0.129525
0.676667	0.2	0.140968
0.680000	0.2	0.152480
0.683333	0.2	0.164076
0.686667	0.2	0.175925
0.690000	0.2	0.188167
0.693333	0.2	0.201244
0.696667	0.2	0.215748
0.700000	0.2	0.231816
0.703333	0.2	0.248923
0.706667	0.2	0.266173
0.710000	0.2	0.282937
0.713333	0.2	0.299193
0.716667	0.2	0.315233
0.720000	0.2	0.331458
0.723333	0.2	0.348326
0.726667	0.2	0.366133
0.730000	0.2	0.384885
0.733333	0.2	0.404361
0.736667	0.2	0.424254
0.740000	0.2	0.444370
0.743333	0.2	0.464621
0.746667	0.2	0.484749
0.750000	0.2	0.504440
0.753333	0.2	0.523876
0.756667	0.2	0.543723
0.760000	0.2	0.564389
0.763333	0.2	0.585757
0.766667	0.2	0.607717
0.770000	0.2	0.630473
0.773333	0.2	0.654131
0.776667	0.2	0.678278
0.780000	0.2	0.702131
0.783333	0.2	0.725093
0.786667	0.2	0.747135
0.790000	0.2	0.768791
0.793333	0.2	0.790786
0.796667	0.2	0.813510
0.800000	0.2	0.836807
0.803333	0.2	0.860248
0.806667	0.2	0.883458
0.810000	0.2	0.906216
0.813333	0.2	0.928642
0.816667	0.2	0.951375
0.820000	0.2	0.975141
0.823333	0.2	1.000172
0.826667	0.2	1.026169
0.830000	0.2	1.052517
0.833333	0.2	1.078469
0.836667	0.2	1.103314
0.840000	0.2	1.126647
0.843333	0.2	1.148715
0.846667	0.2	1.170317
0.850000	0.2	1.192012
0.853333	0.2	1.213585
0.856667	0.2	1.234747
0.860000	0.2	1.256055
0.863333	0.2	1.278629
0.866667	0.2	1.303238
0.870000	0.2	1.329843
0.873333	0.2	1.357588
0.876667	0.2	1.385073
0.880000	0.2	1.410874
0.883333	0.2	1.434045
0.886667	0.2	1.454209
0.890000	0.2	1.471304
0.893333	0.2	1.485472
0.896667	0.2	1.497152
0.900000	0.2	1.507113
0.903333	0.2	1.516427
0.906667	0.2	1.526328
0.910000	0.2	1.537966
0.913333	0.2	1.552404
0.916667	0.2	1.570301
0.920000	0.2	1.591039
0.923333	0.2	1.612679
0.926667	0.2	1.633180
0.930000	0.2	1.651578
0.933333	0.2	1.668047
0.936667	0.2	1.683116
0.940000	0.2	1.697145
0.943333	0.2	1.710447
0.946667	0.2	1.723295
0.950000	0.2	1.735677
0.953333	0.2	1.747510
0.956667	0.2	1.759027
0.960000	0.2	1.770711
0.963333	0.2	1.783155
0.966667	0.2	1.796991
0.970000	0.2	1.812596
0.973333	0.2	1.829724
0.976667	0.2	1.847293
0.980000	0.2	1.863777
0.983333	0.2	1.878156
0.986667	0.2	1.890382
0.990000	0.2	1.901075
0.993333	0.2	1.911316
0.996667	0.2	1.923118
1.000000	0.2	1.942292
1.003333	0.2	1.989147
1.006667	0.2	2.120534
1.010000	0.2	2.450657
1.013333	0.2	3.137944
1.016667	0.2	4.313747
1.020000	0.2	5.978744
1.023333	0.2	7.939664
1.026667	0.2	9.844273
1.030000	0.2	11.304051
1.033333	0.2	12.035552
1.036667	0.2	11.948250
1.040000	0.2	11.147860
1.043333	0.2	9.871387
1.046667	0.2	8.395522
1.050000	0.2	6.958571
1.053333	0.2	5.717528
1.056667	0.2	4.741089
1.060000	0.2	4.027408
1.063333	0.2	3.532946
1.066667	0.2	3.200221
1.070000	0.2	2.976284
1.073333	0.2	2.820805
1.076667	0.2	2.707269
1.080000	0.2	2.620392
1.083333	0.2	2.551991
1.086667	0.2	2.497537
1.090000	0.2	2.454278
1.093333	0.2	2.420240
1.096667	0.2	2.393916
1.100000	0.2	2.374515
1.103333	0.2	2.361822
1.106667	0.2	2.355523
1.110000	0.2	2.354638
1.113333	0.2	2.357497
1.116667	0.2	2.362519
1.120000	0.2	2.368791
1.123333	0.2	2.375669
1.126667	0.2	2.382399
1.130000	0.2	2.388379
1.133333	0.2	2.393379
1.136667	0.2	2.397342
1.140000	0.2	2.400094
1.143333	0.2	2.401697
1.146667	0.2	2.403057
1.150000	0.2	2.405514
1.153333	0.2	2.409889
1.156667	0.2	2.416564
1.160000	0.2	2.426087
1.163333	0.2	2.439043
1.166667	0.2	2.455397
1.170000	0.2	2.474140
1.173333	0.2	2.493367
1.176667	0.2	2.510658
1.180000	0.2	2.523694
1.183333	0.2	2.531128
1.186667	0.2	2.533201
1.190000	0.2	2.531468
1.193333	0.2	2.528045
1.196667	0.2	2.525188
1.200000	0.2	2.525057
1.203333	0.2	2.529019
1.206667	0.2	2.536891
1.210000	0.2	2.547104
1.213333	0.2	2.557759
1.216667	0.2	2.567760
1.220000	0.2	2.577103
1.223333	0.2	2.585933
1.226667	0.2	2.593726
1.230000	0.2	2.599909
1.233333	0.2	2.604763
1.236667	0.2	2.609215
1.240000	0.2	2.614090
1.243333	0.2	2.619986
1.246667	0.2	2.627542
1.250000	0.2	2.637399
1.253333	0.2	2.649788
1.256667	0.2	2.664021
1.260000	0.2	2.678655
1.263333	0.2	2.692271
1.266667	0.2	2.704013
1.270000	0.2	2.713909
1.273333	0.2	2.722776
1.276667	0.2	2.731289
1.280000	0.2	2.739279
1.283333	0.2	2.746135
1.286667	0.2	2.751598
1.290000	0.2	2.756145
1.293333	0.2	2.760775
1.296667	0.2	2.766185
1.300000	0.2	2.772381
1.303333	0.2	2.779291
1.306667	0.2	2.787339
1.310000	0.2	2.797251
1.313333	0.2	2.809315
1.316667	0.2	2.822856
1.320000	0.2	2.836685
1.323333	0.2	2.849797
1.326667	0.2	2.861511
1.330000	0.2	2.871504
1.333333	0.2	2.879974
1.336667	0.2	2.887471
1.340000	0.2	2.894317
1.343333	0.2	2.900662
1.346667	0.2	2.907500
1.350000	0.2	2.917174
1.353333	0.2	2.932572
1.356667	0.2	2.955777
1.360000	0.2	2.987227
1.363333	0.2	3.026064
1.366667	0.2	3.071026
1.370000	0.2	3.120193
1.373333	0.2	3.169157
1.376667	0.2	3.210133
1.380000	0.2	3.234499
1.383333	0.2	3.237196
1.386667	0.2	3.219357
1.390000	0.2	3.187918
1.393333	0.2	3.153435
1.396667	0.2	3.127031
1.400000	0.2	3.116643
1.403333	0.2	3.123862
1.406667	0.2	3.143717
1.410000	0.2	3.167888
1.413333	0.2	3.190369
1.416667	0.2	3.216457
1.420000	0.2	3.272875
1.423333	0.2	3.404522
1.426667	0.2	3.643924
1.430000	0.2	3.970781
1.433333	0.2	4.303663
1.436667	0.2	4.539823
1.440000	0.2	4.611169
1.443333	0.2	4.513718
1.446667	0.2	4.297347
1.450000	0.2	4.033454
1.453333	0.2	3.784887
1.456667	0.2	3.590507
1.460000	0.2	3.463650
1.463333	0.2	3.398189
1.466667	0.2	3.376687
1.470000	0.2	3.378310
1.473333	0.2	3.385410
1.476667	0.2	3.387465
1.480000	0.2	3.381738
1.483333	0.2	3.371051
1.486667	0.2	3.360137
1.490000	0.2	3.352879
1.493333	0.2	3.351121
1.496667	0.2	3.354492
1.500000	0.2	3.361157
1.503333	0.2	3.369098
1.506667	0.2	3.377074
1.510000	0.2	3.384885
1.513333	0.2	3.393057
1.516667	0.2	3.402455
1.520000	0.2	3.414120
1.523333	0.2	3.428935
1.526667	0.2	3.446958
1.530000	0.2	3.466908
1.533333	0.2	3.486433
1.536667	0.2	3.503402
1.540000	0.2	3.517735
1.543333	0.2	3.532564
1.546667	0.2	3.553561
1.550000	0.2	3.586054
1.553333	0.2	3.630865
1.556667	0.2	3.681774
1.560000	0.2	3.727461
1.563333	0.2	3.756855
1.566667	0.2	3.763968
1.570000	0.2	3.749567
1.573333	0.2	3.719731
1.576667	0.2	3.683225
1.580000	0.2	3.649311
1.583333	0.2	3.625993
1.586667	0.2	3.618095
1.590000	0.2	3.625700
1.593333	0.2	3.644274
1.596667	0.2	3.666995
1.600000	0.2	3.688206
1.603333	0.2	3.706037
1.606667	0.2	3.722743
1.610000	0.2	3.742121
1.613333	0.2	3.765271
1.616667	0.2	3.788403
1.620000	0.2	3.804909
1.623333	0.2	3.809850
1.626667	0.2	3.803500
1.630000	0.2	3.791511
1.633333	0.2	3.781356
1.636667	0.2	3.777967
1.640000	0.2	3.782041
1.643333	0.2	3.792434
1.646667	0.2	3.814302
1.650000	0.2	3.874473
1.653333	0.2	4.033637
1.656667	0.2	4.367638
1.660000	0.2	4.906511
1.663333	0.2	5.575449
1.666667	0.2	6.203345
1.670000	0.2	6.606085
1.673333	0.2	6.680352
1.676667	0.2	6.442418
1.680000	0.2	6.003826
1.683333	0.2	5.520034
1.686667	0.2	5.142244
1.690000	0.2	4.975547
1.693333	0.2	5.043384
1.696667	0.2	5.277608
1.700000	0.2	5.551376
1.703333	0.2	5.739140
1.706667	0.2	5.766700
1.710000	0.2	5.627535
1.713333	0.2	5.367552
1.716667	0.2	5.055160
1.720000	0.2	4.753603
1.723333	0.2	4.505063
1.726667	0.2	4.327838
1.730000	0.2	4.222697
1.733333	0.2	4.183258
1.736667	0.2	4.205593
1.740000	0.2	4.291562
1.743333	0.2	4.441437
1.746667	0.2	4.639768
1.750000	0.2	4.848346
1.753333	0.2	5.016679
1.756667	0.2	5.104192
1.760000	0.2	5.097574
1.763333	0.2	5.012103
1.766667	0.2	4.879554
1.770000	0.2	4.733581
1.773333	0.2	4.601037
1.776667	0.2	4.499775
1.780000	0.2	4.439005
1.783333	0.2	4.419569
1.786667	0.2	4.434016
1.790000	0.2	4.468174
1.793333	0.2	4.505734
1.796667	0.2	4.535135
1.800000	0.2	4.554841
1.803333	0.2	4.572177
1.806667	0.2	4.595128
1.810000	0.2	4.623409
1.813333	0.2	4.646897
1.816667	0.2	4.652817
1.820000	0.2	4.635368
1.823333	0.2	4.600536
1.826667	0.2	4.562688
1.830000	0.2	4.535449
1.833333	0.2	4.524043
1.836667	0.2	4.524652
1.840000	0.2	4.529341
1.843333	0.2	4.531280
1.846667	0.2	4.527343
1.850000	0.2	4.518323
1.853333	0.2	4.508054
1.856667	0.2	4.502781
1.860000	0.2	4.511121
1.863333	0.2	4.542632
1.866667	0.2	4.602507
1.870000	0.2	4.684779
1.873333	0.2	4.771474
1.876667	0.2	4.841508
1.880000	0.2	4.883903
1.883333	0.2	4.904509
1.886667	0.2	4.919788
1.890000	0.2	4.943063
1.893333	0.2	4.975453
1.896667	0.2	5.008048
1.900000	0.2	5.031485
1.903333	0.2	5.044401
1.906667	0.2	5.055378
1.910000	0.2	5.078797
1.913333	0.2	5.127783
1.916667	0.2	5.206735
1.920000	0.2	5.306184
1.923333	0.2	5.404636
1.926667	0.2	5.480498
1.930000	0.2	5.529973
1.933333	0.2	5.577186
1.936667	0.2	5.661356
1.940000	0.2	5.803678
1.943333	0.2	5.981453
1.946667	0.2	6.135341
1.950000	0.2	6.204141
1.953333	0.2	6.158112
1.956667	0.2	6.009088
1.960000	0.2	5.797884
1.963333	0.2	5.573091
1.966667	0.2	5.374128
1.970000	0.2	5.224015
1.973333	0.2	5.131169
1.976667	0.2	5.095764
1.980000	0.2	5.115000
1.983333	0.2	5.184732
1.986667	0.2	5.299229
1.990000	0.2	5.450204
1.993333	0.2	5.624568
1.996667	0.2	5.802952
2.000000	0.2	5.962441
2.003333	0.2	6.082526
2.006667	0.2	6.149541
2.010000	0.2	6.158452
2.013333	0.2	6.115390
2.016667	0.2	6.040193
2.020000	0.2	5.962244
2.023333	0.2	5.908120
2.026667	0.2	5.892041
2.030000	0.2	5.921683
2.033333	0.2	6.013791
2.036667	0.2	6.195573
2.040000	0.2	6.479188
2.043333	0.2	6.832388
2.046667	0.2	7.182708
2.050000	0.2	7.461002
2.053333	0.2	7.647082
2.056667	0.2	7.774116
2.060000	0.2	7.888120
2.063333	0.2	8.003722
2.066667	0.2	8.097327
2.070000	0.2	8.134876
2.073333	0.2	8.098454
2.076667	0.2	7.990650
2.080000	0.2	7.829601
2.083333	0.2	7.652940
2.086667	0.2	7.523328
2.090000	0.2	7.512997
2.093333	0.2	7.666469
2.096667	0.2	7.970001
2.100000	0.2	8.351176
2.103333	0.2	8.704845
2.106667	0.2	8.930641
2.110000	0.2	8.969541
2.113333	0.2	8.823305
2.116667	0.2	8.544018
2.120000	0.2	8.202845
2.123333	0.2	7.863997
2.126667	0.2	7.579354
2.130000	0.2	7.392317
2.133333	0.2	7.329900
2.136667	0.2	7.383872
2.140000	0.2	7.504342
2.143333	0.2	7.618993
2.146667	0.2	7.664845
2.150000	0.2	7.612181
2.153333	0.2	7.470740
2.156667	0.2	7.278528
2.160000	0.2	7.080346
2.163333	0.2	6.907984
2.166667	0.2	6.772090
2.170000	0.2	6.666764
2.173333	0.2	6.580929
2.176667	0.2	6.509866
2.180000	0.2	6.460818
2.183333	0.2	6.448464
2.186667	0.2	6.483510
2.190000	0.2	6.565437
2.193333	0.2	6.686226
2.196667	0.2	6.836622
2.200000	0.2	7.003349
2.203333	0.2	7.162634
2.206667	0.2	7.285165
2.210000	0.2	7.353941
2.213333	0.2	7.380511
2.216667	0.2	7.409111
2.220000	0.2	7.508919
2.223333	0.2	7.749372
2.226667	0.2	8.154935
2.230000	0.2	8.667251
2.233333	0.2	9.157859
2.236667	0.2	9.492205
2.240000	0.2	9.595679
2.243333	0.2	9.477999
2.246667	0.2	9.214791
2.250000	0.2	8.909016
2.253333	0.2	8.651342
2.256667	0.2	8.493180
2.260000	0.2	8.443300
2.263333	0.2	8.488131
2.266667	0.2	8.624962
2.270000	0.2	8.891860
2.273333	0.2	9.365219
2.276667	0.2	10.097011
2.280000	0.2	11.021976
2.283333	0.2	11.927077
2.286667	0.2	12.536429
2.290000	0.2	12.653777
2.293333	0.2	12.254721
2.296667	0.2	11.475748
2.300000	0.2	10.530715
2.303333	0.2	9.620294
2.306667	0.2	8.878052
2.310000	0.2	8.358654
2.313333	0.2	8.053612
2.316667	0.2	7.919782
2.320000	0.2	7.912570
2.323333	0.2	8.021139
2.326667	0.2	8.295088
2.330000	0.2	8.828889
2.333333	0.2	9.678747
2.336667	0.2	10.760340
2.340000	0.2	11.832459
2.343333	0.2	12.608831
2.346667	0.2	12.914797
2.350000	0.2	12.765805
2.353333	0.2	12.328990
2.356667	0.2	11.840547
2.360000	0.2	11.584778
2.363333	0.2	11.954085
2.366667	0.2	13.451322
2.370000	0.2	16.454887
2.373333	0.2	20.808948
2.376667	0.2	25.614397
2.380000	0.2	29.529249
2.383333	0.2	31.428622
2.386667	0.2	30.942051
2.390000	0.2	28.517969
2.393333	0.2	25.060968
2.396667	0.2	21.458829
2.400000	0.2	18.290059
2.403333	0.2	15.788892
2.406667	0.2	13.960781
2.410000	0.2	12.706479
2.413333	0.2	11.889911
2.416667	0.2	11.366300
2.420000	0.2	11.005385
2.423333	0.2	10.716152
2.426667	0.2	10.456601
2.430000	0.2	10.220006
2.433333	0.2	10.010315
2.436667	0.2	9.825143
2.440000	0.2	9.653860
2.443333	0.2	9.486862
2.446667	0.2	9.327721
2.450000	0.2	9.200019
2.453333	0.2	9.141821
2.456667	0.2	9.186129
2.460000	0.2	9.340339
2.463333	0.2	9.596554
2.466667	0.2	10.012264
2.470000	0.2	10.858053
2.473333	0.2	12.695999
2.476667	0.2	16.156422
2.480000	0.2	21.399177
2.483333	0.2	27.688477
2.486667	0.2	33.568288
2.490000	0.2	37.572293
2.493333	0.2	38.900257
2.496667	0.2	37.638803
2.500000	0.2	34.667993
2.503333	0.2	31.843817
2.506667	0.2	32.889539
2.510000	0.2	44.170180
2.513333	0.2	73.049323
2.516667	0.2	122.706934
2.520000	0.2	186.711926
2.523333	0.2	249.082418
2.526667	0.2	291.413307
2.530000	0.2	302.009123
2.533333	0.2	280.545820
2.536667	0.2	236.260739
2.540000	0.2	182.402675
2.543333	0.2	130.844213
2.546667	0.2	89.081044
2.550000	0.2	59.748810
2.553333	0.2	41.742161
2.556667	0.2	31.961993
2.560000	0.2	26.970662
2.563333	0.2	24.089129
2.566667	0.2	21.780646
2.570000	0.2	19.485125
2.573333	0.2	17.220447
2.576667	0.2	15.210970
2.580000	0.2	13.659454
2.583333	0.2	12.664917
2.586667	0.2	12.235973
2.590000	0.2	12.331067
2.593333	0.2	12.864941
2.596667	0.2	13.677768
2.600000	0.2	14.543507
2.603333	0.2	15.284369
2.606667	0.2	15.907390
2.610000	0.2	16.570817
2.613333	0.2	17.355757
2.616667	0.2	18.092629
2.620000	0.2	18.450921
2.623333	0.2	18.187074
2.626667	0.2	17.303864
2.630000	0.2	16.025092
2.633333	0.2	14.666198
2.636667	0.2	13.510279
2.640000	0.2	12.735848
2.643333	0.2	12.391249
2.646667	0.2	12.402350
2.650000	0.2	12.611576
2.653333	0.2	12.843681
2.656667	0.2	12.971191
2.660000	0.2	12.946011
2.663333	0.2	12.790132
2.666667	0.2	12.564681
2.670000	0.2	12.339976
2.673333	0.2	12.180452
2.676667	0.2	12.146554
2.680000	0.2	12.300361
2.683333	0.2	12.689319
2.686667	0.2	13.302549
2.690000	0.2	14.047700
2.693333	0.2	14.808139
2.696667	0.2	15.555280
2.700000	0.2	16.386697
2.703333	0.2	17.400380
2.706667	0.2	18.518153
2.710000	0.2	19.474924
2.713333	0.2	20.006331
2.716667	0.2	20.033614
2.720000	0.2	19.671289
2.723333	0.2	19.098170
2.726667	0.2	18.448755
2.730000	0.2	17.798220
2.733333	0.2	17.189620
2.736667	0.2	16.644798
2.740000	0.2	16.164696
2.743333	0.2	15.742002
2.746667	0.2	15.380831
2.750000	0.2	15.106426
2.753333	0.2	14.958401
2.756667	0.2	14.974678
2.760000	0.2	15.191018
2.763333	0.2	15.695811
2.766667	0.2	16.728355
2.770000	0.2	18.661266
2.773333	0.2	21.703271
2.776667	0.2	25.509195
2.780000	0.2	29.148774
2.783333	0.2	31.560792
2.786667	0.2	32.111719
2.790000	0.2	30.841912
2.793333	0.2	28.326983
2.796667	0.2	25.347950
2.800000	0.2	22.583338
2.803333	0.2	20.431698
2.806667	0.2	18.984249
2.810000	0.2	18.116708
2.813333	0.2	17.630761
2.816667	0.2	17.364229
2.820000	0.2	17.225315
2.823333	0.2	17.168034
2.826667	0.2	17.162140
2.830000	0.2	17.188679
2.833333	0.2	17.245683
2.836667	0.2	17.342159
2.840000	0.2	17.488836
2.843333	0.2	17.699545
2.846667	0.2	17.990643
2.850000	0.2	18.362958
2.853333	0.2	18.781396
2.856667	0.2	19.178119
2.860000	0.2	19.477965
2.863333	0.2	19.626887
2.866667	0.2	19.616264
2.870000	0.2	19.498123
2.873333	0.2	19.370677
2.876667	0.2	19.324114
2.880000	0.2	19.381157
2.883333	0.2	19.485796
2.886667	0.2	19.549008
2.890000	0.2	19.509541
2.893333	0.2	19.370785
2.896667	0.2	19.202201
2.900000	0.2	19.105744
2.903333	0.2	19.158323
2.906667	0.2	19.363168
2.910000	0.2	19.648312
2.913333	0.2	19.915811
2.916667	0.2	20.101348
2.920000	0.2	20.200917
2.923333	0.2	20.254125
2.926667	0.2	20.303749
2.930000	0.2	20.364933
2.933333	0.2	20.428548
2.936667	0.2	20.489752
2.940000	0.2	20.568731
2.943333	0.2	20.707246
2.946667	0.2	20.951405
2.950000	0.2	21.328138
2.953333	0.2	21.815168
2.956667	0.2	22.325889
2.960000	0.2	22.739353
2.963333	0.2	22.962970
2.966667	0.2	22.977125
2.970000	0.2	22.831051
2.973333	0.2	22.604253
2.976667	0.2	22.366874
2.980000	0.2	22.161434
2.983333	0.2	22.006328
2.986667	0.2	21.906048
2.990000	0.2	21.855889
2.993333	0.2	21.842619
2.996667	0.2	21.848079
3.000000	0.2	21.857912
3.003333	0.2	21.871876
3.006667	0.2	21.906746
3.010000	0.2	21.983320
3.013333	0.2	22.104288
3.016667	0.2	22.246127
3.020000	0.2	22.379476
3.023333	0.2	22.500063
3.026667	0.2	22.634095
3.030000	0.2	22.807109
3.033333	0.2	23.008735
3.036667	0.2	23.192519
3.040000	0.2	23.309706
3.043333	0.2	23.341067
3.046667	0.2	23.301931
3.050000	0.2	23.226246
3.053333	0.2	23.146353
3.056667	0.2	23.080295
3.060000	0.2	23.031959
3.063333	0.2	23.000805
3.066667	0.2	22.991233
3.070000	0.2	23.012545
3.073333	0.2	23.068399
3.076667	0.2	23.145903
3.080000	0.2	23.217224
3.083333	0.2	23.254505
3.086667	0.2	23.246616
3.090000	0.2	23.204414
3.093333	0.2	23.150253
3.096667	0.2	23.103595
3.100000	0.2	23.077268
