URL	chrom://pc-3vxg514/ChromeleonLocal/Data/2024/2024_w23.seq/118.smp/UV_VIS_2.channel/UV_VIS_2.chm
Channel	UV_VIS_2

Injection Information:
Data Vault	ChromeleonLocal
Sequence	2024_w23
Name	photo-ODIBO
Number	61
Position	GE5
Comment	
Processing Method	General_ILK
Instrument Method	5-100pct_positive_3min
Type	Calibration Standard
Status	Finished
Inject Time	6/5/2024 11:38:15 AM +02:00
Volume (µl)	2.0000
Dilution Factor	1.0000
Weight	1.0000

Chromatogram Data Information:
Time Min. (min)	0.000000
Time Max. (min)	3.100000
Data Points	931
Detector	UV
Generating Data System	Chromeleon 7.3.2.11814
Exporting Data System	Chromeleon 7.3.2.0
Operator	Instrument Controller
Signal Quantity	Absorbance
Signal Unit	mAU
Signal Min.	-0.016627
Signal Max.	866.537618
Channel	UV_VIS_2
Driver Name	DAD3000.dll
Channel Type	Evaluation
Min. Step (s)	0.2
Max. Step (s)	0.2
Average Step (s)	0.2

Signal Parameter Information:
Signal Info	WVL:254 nm

Chromatogram Data:
Time (min)	Step (s)	Value (mAU)
0.000000	n.a.	0.000000
0.003333	0.2	-0.000149
0.006667	0.2	-0.000887
0.010000	0.2	-0.002411
0.013333	0.2	-0.004176
0.016667	0.2	-0.005578
0.020000	0.2	-0.006572
0.023333	0.2	-0.007391
0.026667	0.2	-0.008221
0.030000	0.2	-0.009107
0.033333	0.2	-0.010071
0.036667	0.2	-0.011180
0.040000	0.2	-0.012434
0.043333	0.2	-0.013865
0.046667	0.2	-0.015406
0.050000	0.2	-0.016464
0.053333	0.2	-0.016258
0.056667	0.2	-0.014807
0.060000	0.2	-0.013026
0.063333	0.2	-0.011790
0.066667	0.2	-0.011423
0.070000	0.2	-0.011847
0.073333	0.2	-0.012788
0.076667	0.2	-0.013967
0.080000	0.2	-0.015126
0.083333	0.2	-0.015846
0.086667	0.2	-0.015686
0.090000	0.2	-0.014644
0.093333	0.2	-0.013237
0.096667	0.2	-0.011952
0.100000	0.2	-0.010807
0.103333	0.2	-0.009570
0.106667	0.2	-0.008171
0.110000	0.2	-0.006608
0.113333	0.2	-0.004557
0.116667	0.2	-0.001407
0.120000	0.2	0.003212
0.123333	0.2	0.009304
0.126667	0.2	0.016932
0.130000	0.2	0.026145
0.133333	0.2	0.036270
0.136667	0.2	0.045596
0.140000	0.2	0.051906
0.143333	0.2	0.053574
0.146667	0.2	0.050498
0.150000	0.2	0.043987
0.153333	0.2	0.035810
0.156667	0.2	0.027614
0.160000	0.2	0.022171
0.163333	0.2	0.137984
0.166667	0.2	1.078521
0.170000	0.2	4.318310
0.173333	0.2	10.628617
0.176667	0.2	18.212723
0.180000	0.2	23.603846
0.183333	0.2	24.556316
0.186667	0.2	21.376125
0.190000	0.2	15.990205
0.193333	0.2	10.495389
0.196667	0.2	6.321116
0.200000	0.2	4.067344
0.203333	0.2	3.664130
0.206667	0.2	4.549671
0.210000	0.2	5.871879
0.213333	0.2	6.880863
0.216667	0.2	7.358327
0.220000	0.2	7.598599
0.223333	0.2	7.895741
0.226667	0.2	8.158387
0.230000	0.2	8.049539
0.233333	0.2	7.350871
0.236667	0.2	6.131386
0.240000	0.2	4.661200
0.243333	0.2	3.238141
0.246667	0.2	2.065999
0.250000	0.2	1.221044
0.253333	0.2	0.680167
0.256667	0.2	0.370063
0.260000	0.2	0.209082
0.263333	0.2	0.130975
0.266667	0.2	0.092194
0.270000	0.2	0.069158
0.273333	0.2	0.051659
0.276667	0.2	0.036762
0.280000	0.2	0.024627
0.283333	0.2	0.015790
0.286667	0.2	0.010037
0.290000	0.2	0.006753
0.293333	0.2	0.005385
0.296667	0.2	0.005329
0.300000	0.2	0.005811
0.303333	0.2	0.006250
0.306667	0.2	0.006636
0.310000	0.2	0.007141
0.313333	0.2	0.007512
0.316667	0.2	0.007315
0.320000	0.2	0.006502
0.323333	0.2	0.005449
0.326667	0.2	0.004575
0.330000	0.2	0.004037
0.333333	0.2	0.003918
0.336667	0.2	0.004480
0.340000	0.2	0.005823
0.343333	0.2	0.007485
0.346667	0.2	0.008762
0.350000	0.2	0.009414
0.353333	0.2	0.009932
0.356667	0.2	0.011052
0.360000	0.2	0.013146
0.363333	0.2	0.016146
0.366667	0.2	0.019723
0.370000	0.2	0.023298
0.373333	0.2	0.026069
0.376667	0.2	0.027364
0.380000	0.2	0.026923
0.383333	0.2	0.024917
0.386667	0.2	0.021907
0.390000	0.2	0.018446
0.393333	0.2	0.014625
0.396667	0.2	0.010267
0.400000	0.2	0.005353
0.403333	0.2	0.000207
0.406667	0.2	-0.004495
0.410000	0.2	-0.008003
0.413333	0.2	-0.009942
0.416667	0.2	-0.010512
0.420000	0.2	-0.010262
0.423333	0.2	-0.009723
0.426667	0.2	-0.009265
0.430000	0.2	-0.009080
0.433333	0.2	-0.009094
0.436667	0.2	-0.009138
0.440000	0.2	-0.009356
0.443333	0.2	-0.010069
0.446667	0.2	-0.011153
0.450000	0.2	-0.012038
0.453333	0.2	-0.012418
0.456667	0.2	-0.012522
0.460000	0.2	-0.012722
0.463333	0.2	-0.013246
0.466667	0.2	-0.014211
0.470000	0.2	-0.015473
0.473333	0.2	-0.016469
0.476667	0.2	-0.016627
0.480000	0.2	-0.015872
0.483333	0.2	-0.014561
0.486667	0.2	-0.013137
0.490000	0.2	-0.011961
0.493333	0.2	-0.011261
0.496667	0.2	-0.011254
0.500000	0.2	-0.012131
0.503333	0.2	-0.013531
0.506667	0.2	-0.014502
0.510000	0.2	-0.014520
0.513333	0.2	-0.014061
0.516667	0.2	-0.013784
0.520000	0.2	-0.013608
0.523333	0.2	-0.012972
0.526667	0.2	-0.011741
0.530000	0.2	-0.010330
0.533333	0.2	-0.009081
0.536667	0.2	-0.008006
0.540000	0.2	-0.006981
0.543333	0.2	-0.006001
0.546667	0.2	-0.005183
0.550000	0.2	-0.004560
0.553333	0.2	-0.004107
0.556667	0.2	-0.003655
0.560000	0.2	-0.002749
0.563333	0.2	-0.001059
0.566667	0.2	0.001438
0.570000	0.2	0.004827
0.573333	0.2	0.009268
0.576667	0.2	0.014667
0.580000	0.2	0.020534
0.583333	0.2	0.026049
0.586667	0.2	0.030498
0.590000	0.2	0.033664
0.593333	0.2	0.035773
0.596667	0.2	0.037381
0.600000	0.2	0.039140
0.603333	0.2	0.041360
0.606667	0.2	0.043974
0.610000	0.2	0.046784
0.613333	0.2	0.049564
0.616667	0.2	0.052271
0.620000	0.2	0.055151
0.623333	0.2	0.058511
0.626667	0.2	0.062510
0.630000	0.2	0.067092
0.633333	0.2	0.072100
0.636667	0.2	0.077482
0.640000	0.2	0.083240
0.643333	0.2	0.089396
0.646667	0.2	0.096000
0.650000	0.2	0.103041
0.653333	0.2	0.110619
0.656667	0.2	0.119055
0.660000	0.2	0.128536
0.663333	0.2	0.138762
0.666667	0.2	0.149194
0.670000	0.2	0.159802
0.673333	0.2	0.171177
0.676667	0.2	0.183782
0.680000	0.2	0.197457
0.683333	0.2	0.211541
0.686667	0.2	0.225239
0.690000	0.2	0.238080
0.693333	0.2	0.250101
0.696667	0.2	0.261625
0.700000	0.2	0.273174
0.703333	0.2	0.285445
0.706667	0.2	0.299105
0.710000	0.2	0.314564
0.713333	0.2	0.331789
0.716667	0.2	0.350161
0.720000	0.2	0.368686
0.723333	0.2	0.386746
0.726667	0.2	0.404708
0.730000	0.2	0.423628
0.733333	0.2	0.444168
0.736667	0.2	0.465727
0.740000	0.2	0.486970
0.743333	0.2	0.507160
0.746667	0.2	0.526507
0.750000	0.2	0.545536
0.753333	0.2	0.564677
0.756667	0.2	0.584204
0.760000	0.2	0.604198
0.763333	0.2	0.624644
0.766667	0.2	0.645592
0.770000	0.2	0.667048
0.773333	0.2	0.688843
0.776667	0.2	0.710803
0.780000	0.2	0.733036
0.783333	0.2	0.755845
0.786667	0.2	0.779200
0.790000	0.2	0.802531
0.793333	0.2	0.825140
0.796667	0.2	0.846682
0.800000	0.2	0.867403
0.803333	0.2	0.887986
0.806667	0.2	0.909127
0.810000	0.2	0.931307
0.813333	0.2	0.954737
0.816667	0.2	0.979104
0.820000	0.2	1.003518
0.823333	0.2	1.027168
0.826667	0.2	1.049964
0.830000	0.2	1.072337
0.833333	0.2	1.094517
0.836667	0.2	1.116262
0.840000	0.2	1.137258
0.843333	0.2	1.157398
0.846667	0.2	1.176828
0.850000	0.2	1.196020
0.853333	0.2	1.215528
0.856667	0.2	1.235857
0.860000	0.2	1.257716
0.863333	0.2	1.281817
0.866667	0.2	1.308181
0.870000	0.2	1.335726
0.873333	0.2	1.362629
0.876667	0.2	1.387288
0.880000	0.2	1.408889
0.883333	0.2	1.427234
0.886667	0.2	1.442715
0.890000	0.2	1.456565
0.893333	0.2	1.470576
0.896667	0.2	1.486266
0.900000	0.2	1.504100
0.903333	0.2	1.523397
0.906667	0.2	1.543014
0.910000	0.2	1.562193
0.913333	0.2	1.580965
0.916667	0.2	1.599905
0.920000	0.2	1.619337
0.923333	0.2	1.638955
0.926667	0.2	1.658152
0.930000	0.2	1.676292
0.933333	0.2	1.693052
0.936667	0.2	1.708782
0.940000	0.2	1.724133
0.943333	0.2	1.739356
0.946667	0.2	1.754265
0.950000	0.2	1.768752
0.953333	0.2	1.783091
0.956667	0.2	1.797719
0.960000	0.2	1.813010
0.963333	0.2	1.829344
0.966667	0.2	1.847034
0.970000	0.2	1.865854
0.973333	0.2	1.884760
0.976667	0.2	1.902293
0.980000	0.2	1.917445
0.983333	0.2	1.930163
0.986667	0.2	1.941037
0.990000	0.2	1.950781
0.993333	0.2	1.960058
0.996667	0.2	1.969495
1.000000	0.2	1.979624
1.003333	0.2	1.991732
1.006667	0.2	2.012776
1.010000	0.2	2.070515
1.013333	0.2	2.241982
1.016667	0.2	2.676974
1.020000	0.2	3.574146
1.023333	0.2	5.084938
1.026667	0.2	7.186856
1.030000	0.2	9.617909
1.033333	0.2	11.934317
1.036667	0.2	13.666947
1.040000	0.2	14.488731
1.043333	0.2	14.310759
1.046667	0.2	13.277300
1.050000	0.2	11.683252
1.053333	0.2	9.864044
1.056667	0.2	8.104258
1.060000	0.2	6.588776
1.063333	0.2	5.396645
1.066667	0.2	4.523995
1.070000	0.2	3.918329
1.073333	0.2	3.509958
1.076667	0.2	3.233777
1.080000	0.2	3.040373
1.083333	0.2	2.898004
1.086667	0.2	2.788815
1.090000	0.2	2.703352
1.093333	0.2	2.636046
1.096667	0.2	2.582890
1.100000	0.2	2.540931
1.103333	0.2	2.508212
1.106667	0.2	2.483528
1.110000	0.2	2.465933
1.113333	0.2	2.454395
1.116667	0.2	2.448260
1.120000	0.2	2.447310
1.123333	0.2	2.450815
1.126667	0.2	2.457415
1.130000	0.2	2.465923
1.133333	0.2	2.475291
1.136667	0.2	2.484183
1.140000	0.2	2.491393
1.143333	0.2	2.496606
1.146667	0.2	2.500522
1.150000	0.2	2.504331
1.153333	0.2	2.509140
1.156667	0.2	2.515642
1.160000	0.2	2.524026
1.163333	0.2	2.534260
1.166667	0.2	2.546744
1.170000	0.2	2.562417
1.173333	0.2	2.581799
1.176667	0.2	2.603914
1.180000	0.2	2.626102
1.183333	0.2	2.644800
1.186667	0.2	2.656887
1.190000	0.2	2.660947
1.193333	0.2	2.657827
1.196667	0.2	2.650288
1.200000	0.2	2.641981
1.203333	0.2	2.636147
1.206667	0.2	2.634627
1.210000	0.2	2.637541
1.213333	0.2	2.643746
1.216667	0.2	2.651855
1.220000	0.2	2.661102
1.223333	0.2	2.671201
1.226667	0.2	2.681489
1.230000	0.2	2.690828
1.233333	0.2	2.698427
1.236667	0.2	2.704391
1.240000	0.2	2.709576
1.243333	0.2	2.714973
1.246667	0.2	2.721088
1.250000	0.2	2.727983
1.253333	0.2	2.735830
1.256667	0.2	2.745249
1.260000	0.2	2.756928
1.263333	0.2	2.770804
1.266667	0.2	2.785792
1.270000	0.2	2.800608
1.273333	0.2	2.814566
1.276667	0.2	2.827328
1.280000	0.2	2.838433
1.283333	0.2	2.847714
1.286667	0.2	2.855750
1.290000	0.2	2.863456
1.293333	0.2	2.871386
1.296667	0.2	2.879514
1.300000	0.2	2.887578
1.303333	0.2	2.895489
1.306667	0.2	2.903429
1.310000	0.2	2.911934
1.313333	0.2	2.921852
1.316667	0.2	2.933881
1.320000	0.2	2.948016
1.323333	0.2	2.963221
1.326667	0.2	2.977828
1.330000	0.2	2.990592
1.333333	0.2	3.001264
1.336667	0.2	3.010273
1.340000	0.2	3.018228
1.343333	0.2	3.025533
1.346667	0.2	3.032234
1.350000	0.2	3.038480
1.353333	0.2	3.045535
1.356667	0.2	3.056372
1.360000	0.2	3.074488
1.363333	0.2	3.101532
1.366667	0.2	3.136353
1.370000	0.2	3.176170
1.373333	0.2	3.217548
1.376667	0.2	3.256183
1.380000	0.2	3.287161
1.383333	0.2	3.306299
1.386667	0.2	3.311496
1.390000	0.2	3.303717
1.393333	0.2	3.287445
1.396667	0.2	3.269861
1.400000	0.2	3.258970
1.403333	0.2	3.261126
1.406667	0.2	3.278145
1.410000	0.2	3.305708
1.413333	0.2	3.335925
1.416667	0.2	3.367998
1.420000	0.2	3.431984
1.423333	0.2	3.614324
1.426667	0.2	4.039330
1.430000	0.2	4.775358
1.433333	0.2	5.729738
1.436667	0.2	6.649279
1.440000	0.2	7.249129
1.443333	0.2	7.364429
1.446667	0.2	7.013293
1.450000	0.2	6.354670
1.453333	0.2	5.601349
1.456667	0.2	4.950332
1.460000	0.2	4.544387
1.463333	0.2	4.442927
1.466667	0.2	4.599586
1.470000	0.2	4.877170
1.473333	0.2	5.111576
1.476667	0.2	5.186839
1.480000	0.2	5.073199
1.483333	0.2	4.815384
1.486667	0.2	4.492804
1.490000	0.2	4.180056
1.493333	0.2	3.924460
1.496667	0.2	3.742868
1.500000	0.2	3.630185
1.503333	0.2	3.570505
1.506667	0.2	3.545901
1.510000	0.2	3.541329
1.513333	0.2	3.546292
1.516667	0.2	3.554842
1.520000	0.2	3.564611
1.523333	0.2	3.575391
1.526667	0.2	3.588056
1.530000	0.2	3.603870
1.533333	0.2	3.623656
1.536667	0.2	3.647119
1.540000	0.2	3.673517
1.543333	0.2	3.703256
1.546667	0.2	3.738347
1.550000	0.2	3.780899
1.553333	0.2	3.830798
1.556667	0.2	3.884339
1.560000	0.2	3.934676
1.563333	0.2	3.973422
1.566667	0.2	3.992874
1.570000	0.2	3.988942
1.573333	0.2	3.963215
1.576667	0.2	3.922441
1.580000	0.2	3.876446
1.583333	0.2	3.836696
1.586667	0.2	3.817339
1.590000	0.2	3.845260
1.593333	0.2	3.988410
1.596667	0.2	4.379766
1.600000	0.2	5.168542
1.603333	0.2	6.379669
1.606667	0.2	7.800997
1.610000	0.2	9.040748
1.613333	0.2	9.731268
1.616667	0.2	9.712121
1.620000	0.2	9.070347
1.623333	0.2	8.052381
1.626667	0.2	6.936153
1.630000	0.2	5.936215
1.633333	0.2	5.166630
1.636667	0.2	4.651088
1.640000	0.2	4.356964
1.643333	0.2	4.230424
1.646667	0.2	4.217055
1.650000	0.2	4.267924
1.653333	0.2	4.343230
1.656667	0.2	4.419054
1.660000	0.2	4.488725
1.663333	0.2	4.552586
1.666667	0.2	4.604936
1.670000	0.2	4.631573
1.673333	0.2	4.619124
1.676667	0.2	4.565614
1.680000	0.2	4.483481
1.683333	0.2	4.396129
1.686667	0.2	4.333195
1.690000	0.2	4.323966
1.693333	0.2	4.386263
1.696667	0.2	4.515662
1.700000	0.2	4.684143
1.703333	0.2	4.850006
1.706667	0.2	4.972300
1.710000	0.2	5.023042
1.713333	0.2	4.994345
1.716667	0.2	4.899065
1.720000	0.2	4.764627
1.723333	0.2	4.622483
1.726667	0.2	4.498139
1.730000	0.2	4.406015
1.733333	0.2	4.350687
1.736667	0.2	4.333237
1.740000	0.2	4.358637
1.743333	0.2	4.439072
1.746667	0.2	4.588932
1.750000	0.2	4.810766
1.753333	0.2	5.079974
1.756667	0.2	5.342723
1.760000	0.2	5.535202
1.763333	0.2	5.613677
1.766667	0.2	5.573142
1.770000	0.2	5.443012
1.773333	0.2	5.269190
1.776667	0.2	5.100876
1.780000	0.2	4.991982
1.783333	0.2	5.006908
1.786667	0.2	5.204810
1.790000	0.2	5.594325
1.793333	0.2	6.097031
1.796667	0.2	6.568656
1.800000	0.2	6.872245
1.803333	0.2	6.944293
1.806667	0.2	6.807058
1.810000	0.2	6.532862
1.813333	0.2	6.198609
1.816667	0.2	5.860261
1.820000	0.2	5.550080
1.823333	0.2	5.283793
1.826667	0.2	5.067487
1.830000	0.2	4.901733
1.833333	0.2	4.783809
1.836667	0.2	4.708917
1.840000	0.2	4.670206
1.843333	0.2	4.658003
1.846667	0.2	4.660417
1.850000	0.2	4.666366
1.853333	0.2	4.668948
1.856667	0.2	4.667021
1.860000	0.2	4.665672
1.863333	0.2	4.675777
1.866667	0.2	4.709725
1.870000	0.2	4.772604
1.873333	0.2	4.855270
1.876667	0.2	4.937274
1.880000	0.2	4.999016
1.883333	0.2	5.033200
1.886667	0.2	5.046492
1.890000	0.2	5.051579
1.893333	0.2	5.057645
1.896667	0.2	5.066935
1.900000	0.2	5.078201
1.903333	0.2	5.091869
1.906667	0.2	5.112114
1.910000	0.2	5.145614
1.913333	0.2	5.199385
1.916667	0.2	5.278068
1.920000	0.2	5.379992
1.923333	0.2	5.494563
1.926667	0.2	5.605924
1.930000	0.2	5.705169
1.933333	0.2	5.804292
1.936667	0.2	5.935130
1.940000	0.2	6.123488
1.943333	0.2	6.356162
1.946667	0.2	6.574400
1.950000	0.2	6.705041
1.953333	0.2	6.704351
1.956667	0.2	6.580520
1.960000	0.2	6.381890
1.963333	0.2	6.164884
1.966667	0.2	5.967170
1.970000	0.2	5.801693
1.973333	0.2	5.667988
1.976667	0.2	5.566287
1.980000	0.2	5.502269
1.983333	0.2	5.480893
1.986667	0.2	5.497979
1.990000	0.2	5.539132
1.993333	0.2	5.587683
1.996667	0.2	5.637256
2.000000	0.2	5.711593
2.003333	0.2	5.916176
2.006667	0.2	6.533939
2.010000	0.2	8.058815
2.013333	0.2	10.965061
2.016667	0.2	15.230569
2.020000	0.2	20.034452
2.023333	0.2	24.028590
2.026667	0.2	26.041286
2.030000	0.2	25.676997
2.033333	0.2	23.438490
2.036667	0.2	20.392181
2.040000	0.2	17.663122
2.043333	0.2	16.321071
2.046667	0.2	18.709507
2.050000	0.2	31.956265
2.053333	0.2	71.308247
2.056667	0.2	156.901820
2.060000	0.2	300.132741
2.063333	0.2	487.354159
2.066667	0.2	676.812752
2.070000	0.2	815.809192
2.073333	0.2	866.537618
2.076667	0.2	822.137358
2.080000	0.2	704.774673
2.083333	0.2	551.287630
2.086667	0.2	397.170245
2.090000	0.2	266.479725
2.093333	0.2	169.436346
2.096667	0.2	105.477083
2.100000	0.2	68.314626
2.103333	0.2	50.203019
2.106667	0.2	44.136436
2.110000	0.2	44.348835
2.113333	0.2	46.293281
2.116667	0.2	46.836776
2.120000	0.2	44.520519
2.123333	0.2	39.449488
2.126667	0.2	32.730605
2.130000	0.2	25.748859
2.133333	0.2	19.608306
2.136667	0.2	14.884527
2.140000	0.2	11.652081
2.143333	0.2	9.661697
2.146667	0.2	8.542575
2.150000	0.2	7.952748
2.153333	0.2	7.652302
2.156667	0.2	7.508143
2.160000	0.2	7.457647
2.163333	0.2	7.467313
2.166667	0.2	7.514591
2.170000	0.2	7.592583
2.173333	0.2	7.711471
2.176667	0.2	7.879132
2.180000	0.2	8.076516
2.183333	0.2	8.255437
2.186667	0.2	8.363134
2.190000	0.2	8.373276
2.193333	0.2	8.302030
2.196667	0.2	8.199440
2.200000	0.2	8.120664
2.203333	0.2	8.095965
2.206667	0.2	8.119152
2.210000	0.2	8.158099
2.213333	0.2	8.175893
2.216667	0.2	8.148730
2.220000	0.2	8.073304
2.223333	0.2	7.964212
2.226667	0.2	7.845857
2.230000	0.2	7.744545
2.233333	0.2	7.684353
2.236667	0.2	7.684589
2.240000	0.2	7.754683
2.243333	0.2	7.888746
2.246667	0.2	8.067282
2.250000	0.2	8.266761
2.253333	0.2	8.467990
2.256667	0.2	8.658464
2.260000	0.2	8.839756
2.263333	0.2	9.064070
2.266667	0.2	9.515267
2.270000	0.2	10.582507
2.273333	0.2	12.777587
2.276667	0.2	16.407722
2.280000	0.2	21.208110
2.283333	0.2	26.302537
2.286667	0.2	30.574837
2.290000	0.2	33.140039
2.293333	0.2	33.603076
2.296667	0.2	32.070617
2.300000	0.2	29.029195
2.303333	0.2	25.165939
2.306667	0.2	21.172141
2.310000	0.2	17.582873
2.313333	0.2	14.698920
2.316667	0.2	12.596460
2.320000	0.2	11.194952
2.323333	0.2	10.343719
2.326667	0.2	9.894803
2.330000	0.2	9.740910
2.333333	0.2	9.810395
2.336667	0.2	10.034580
2.340000	0.2	10.324431
2.343333	0.2	10.584014
2.346667	0.2	10.750090
2.350000	0.2	10.820715
2.353333	0.2	10.847953
2.356667	0.2	10.906663
2.360000	0.2	11.069519
2.363333	0.2	11.397121
2.366667	0.2	11.929938
2.370000	0.2	12.678124
2.373333	0.2	13.611189
2.376667	0.2	14.637447
2.380000	0.2	15.582855
2.383333	0.2	16.216570
2.386667	0.2	16.343234
2.390000	0.2	15.904193
2.393333	0.2	15.008698
2.396667	0.2	13.878586
2.400000	0.2	12.757426
2.403333	0.2	11.844755
2.406667	0.2	11.276830
2.410000	0.2	11.128429
2.413333	0.2	11.397973
2.416667	0.2	11.978683
2.420000	0.2	12.664879
2.423333	0.2	13.224756
2.426667	0.2	13.501729
2.430000	0.2	13.470762
2.433333	0.2	13.215127
2.436667	0.2	12.858199
2.440000	0.2	12.513258
2.443333	0.2	12.275469
2.446667	0.2	12.222921
2.450000	0.2	12.392149
2.453333	0.2	12.746430
2.456667	0.2	13.179776
2.460000	0.2	13.561916
2.463333	0.2	13.790017
2.466667	0.2	13.818787
2.470000	0.2	13.668553
2.473333	0.2	13.420689
2.476667	0.2	13.196981
2.480000	0.2	13.114485
2.483333	0.2	13.228261
2.486667	0.2	13.497388
2.490000	0.2	13.802809
2.493333	0.2	14.010135
2.496667	0.2	14.036703
2.500000	0.2	13.880791
2.503333	0.2	13.604803
2.506667	0.2	13.296468
2.510000	0.2	13.032565
2.513333	0.2	12.856030
2.516667	0.2	12.773774
2.520000	0.2	12.783161
2.523333	0.2	12.925230
2.526667	0.2	13.336626
2.530000	0.2	14.238571
2.533333	0.2	15.807077
2.536667	0.2	17.968764
2.540000	0.2	20.294849
2.543333	0.2	22.141069
2.546667	0.2	22.973289
2.550000	0.2	22.648240
2.553333	0.2	21.460782
2.556667	0.2	19.947184
2.560000	0.2	18.587663
2.563333	0.2	17.597738
2.566667	0.2	16.917337
2.570000	0.2	16.355349
2.573333	0.2	15.754322
2.576667	0.2	15.073968
2.580000	0.2	14.386936
2.583333	0.2	13.835778
2.586667	0.2	13.591620
2.590000	0.2	13.814641
2.593333	0.2	14.585058
2.596667	0.2	15.804977
2.600000	0.2	17.160197
2.603333	0.2	18.240170
2.606667	0.2	18.766848
2.610000	0.2	18.741767
2.613333	0.2	18.381577
2.616667	0.2	17.921255
2.620000	0.2	17.475268
2.623333	0.2	17.044138
2.626667	0.2	16.596124
2.630000	0.2	16.128220
2.633333	0.2	15.684437
2.636667	0.2	15.349424
2.640000	0.2	15.221679
2.643333	0.2	15.364745
2.646667	0.2	15.758701
2.650000	0.2	16.288231
2.653333	0.2	16.781453
2.656667	0.2	17.084198
2.660000	0.2	17.135306
2.663333	0.2	16.994933
2.666667	0.2	16.794961
2.670000	0.2	16.643357
2.673333	0.2	16.561797
2.676667	0.2	16.501965
2.680000	0.2	16.410543
2.683333	0.2	16.281995
2.686667	0.2	16.162488
2.690000	0.2	16.107814
2.693333	0.2	16.131636
2.696667	0.2	16.190634
2.700000	0.2	16.220105
2.703333	0.2	16.184138
2.706667	0.2	16.097058
2.710000	0.2	16.013110
2.713333	0.2	16.011860
2.716667	0.2	16.186649
2.720000	0.2	16.610881
2.723333	0.2	17.276196
2.726667	0.2	18.052191
2.730000	0.2	18.723691
2.733333	0.2	19.095741
2.736667	0.2	19.094694
2.740000	0.2	18.798838
2.743333	0.2	18.387537
2.746667	0.2	18.050764
2.750000	0.2	17.912262
2.753333	0.2	17.992381
2.756667	0.2	18.212452
2.760000	0.2	18.437695
2.763333	0.2	18.546085
2.766667	0.2	18.494258
2.770000	0.2	18.348779
2.773333	0.2	18.260074
2.776667	0.2	18.377339
2.780000	0.2	18.748190
2.783333	0.2	19.279935
2.786667	0.2	19.797232
2.790000	0.2	20.144018
2.793333	0.2	20.250624
2.796667	0.2	20.138922
2.800000	0.2	19.886849
2.803333	0.2	19.580959
2.806667	0.2	19.281293
2.810000	0.2	19.016122
2.813333	0.2	18.802708
2.816667	0.2	18.668227
2.820000	0.2	18.648802
2.823333	0.2	18.771043
2.826667	0.2	19.034806
2.830000	0.2	19.404717
2.833333	0.2	19.812744
2.836667	0.2	20.179966
2.840000	0.2	20.450336
2.843333	0.2	20.609092
2.846667	0.2	20.675317
2.850000	0.2	20.687871
2.853333	0.2	20.700852
2.856667	0.2	20.778798
2.860000	0.2	20.972172
2.863333	0.2	21.279391
2.866667	0.2	21.632536
2.870000	0.2	21.929813
2.873333	0.2	22.091740
2.876667	0.2	22.098251
2.880000	0.2	21.986940
2.883333	0.2	21.824572
2.886667	0.2	21.674325
2.890000	0.2	21.574198
2.893333	0.2	21.533969
2.896667	0.2	21.546579
2.900000	0.2	21.598526
2.903333	0.2	21.671312
2.906667	0.2	21.740821
2.910000	0.2	21.781626
2.913333	0.2	21.776892
2.916667	0.2	21.730031
2.920000	0.2	21.668423
2.923333	0.2	21.630751
2.926667	0.2	21.643019
2.930000	0.2	21.701572
2.933333	0.2	21.778097
2.936667	0.2	21.840351
2.940000	0.2	21.870086
2.943333	0.2	21.871079
2.946667	0.2	21.868785
2.950000	0.2	21.899974
2.953333	0.2	21.993093
2.956667	0.2	22.148861
2.960000	0.2	22.334341
2.963333	0.2	22.496104
2.966667	0.2	22.585315
2.970000	0.2	22.580070
2.973333	0.2	22.492777
2.976667	0.2	22.360660
2.980000	0.2	22.227394
2.983333	0.2	22.126398
2.986667	0.2	22.072850
2.990000	0.2	22.065094
2.993333	0.2	22.090695
2.996667	0.2	22.132283
3.000000	0.2	22.172323
3.003333	0.2	22.198124
3.006667	0.2	22.206186
3.010000	0.2	22.202802
3.013333	0.2	22.199378
3.016667	0.2	22.204520
3.020000	0.2	22.217664
3.023333	0.2	22.228972
3.026667	0.2	22.226120
3.030000	0.2	22.203302
3.033333	0.2	22.166056
3.036667	0.2	22.128758
3.040000	0.2	22.107055
3.043333	0.2	22.110103
3.046667	0.2	22.136472
3.050000	0.2	22.175383
3.053333	0.2	22.212171
3.056667	0.2	22.234107
3.060000	0.2	22.232826
3.063333	0.2	22.203433
3.066667	0.2	22.144104
3.070000	0.2	22.058020
3.073333	0.2	21.954363
3.076667	0.2	21.845962
3.080000	0.2	21.745237
3.083333	0.2	21.660737
3.086667	0.2	21.596766
3.090000	0.2	21.555180
3.093333	0.2	21.534114
3.096667	0.2	21.524887
3.100000	0.2	21.513816
