URL	chrom://pc-3vxg514/ChromeleonLocal/Data/2024/2024_w23.seq/356.smp/ISQEC.xraw
Channel	UV_VIS_2

Injection Information:
Data Vault	ChromeleonLocal
Sequence	2024_w23
Name	ODIBO_click_30min
Number	69
Position	GE5
Comment	
Processing Method	General_ILK
Instrument Method	5-100pct_positive_3min
Type	Calibration Standard
Status	Finished
Inject Time	6/5/2024 2:35:42 PM +02:00
Volume (µl)	1.5000
Dilution Factor	1.0000
Weight	1.0000

Raw Data Information:
Data Points	1235
Mass Min. (m/z)	100.000000
Mass Max. (m/z)	1200.092294
Retention Time (min)	2.010510
Mass Resolution	0.500000
Tolerance Unit	Amu
Scan Number	901
Scan Type	+ c ESI sid=20.00 Full ms [100.000-1200.000]
Is Centroid Scan	True
Base Peak Mass	322.219299
Base Peak Intensity	72767640.000000
Total Ion Count	106488211.539293

Raw Data:
Mass (m/z)	Value (counts)
101.0	1852305.875000
102.2	105290.164063
103.1	3381.911621
103.9	2999.721436
105.0	3293685.250000
106.2	129360.984375
107.0	2087.148193
108.1	4190.891602
110.2	0.749173
110.8	564.274109
112.1	1597.340576
112.8	3239.331543
114.5	11503.553711
115.3	15729.880859
116.2	5549.420410
117.1	63299.351563
118.1	41720.636719
120.2	11447.546875
121.1	34035.777344
122.1	63365.519531
123.1	4872.788086
123.7	2405.081543
124.6	7440.103027
125.2	2722.181396
126.5	288.306946
127.2	5858.539063
128.2	8763.866211
129.2	10960.782227
130.2	299332.750000
131.3	30244.248047
132.4	6503.143066
133.5	485.642120
134.1	49.184231
135.4	7518.284668
136.3	13833.416992
137.8	106.463577
139.4	4563.308105
140.2	12166.214844
141.1	2274.931396
142.2	11838.766602
143.1	5043.255859
144.1	5169.904785
145.0	47784.832031
146.1	487717.187500
147.2	53204.304688
148.1	8557.155273
149.9	2954.374023
150.4	900.176025
151.2	8804.491211
152.2	8253.188477
152.8	1.093883
153.6	190.915985
154.3	901.908875
155.3	14592.964844
156.3	1090.744873
157.2	901.234131
158.0	3718.160889
158.5	370.233337
159.8	3323.859619
160.5	930.903503
161.4	43.497375
162.3	51.305969
163.2	13498.053711
164.2	13366.379883
165.5	4608.602051
167.0	4454.783691
167.9	5912.958496
168.5	2163.457275
169.6	5026.832031
170.2	631.475769
171.1	2035.689697
172.0	5128.990234
172.6	283.070435
173.1	10.269924
175.1	14613.926758
176.1	2328.454102
176.8	14.123610
177.3	142.317154
178.1	9007.580078
178.9	9334.930664
180.1	6611.187012
181.1	54611.605469
181.9	10742.825195
182.4	9909.694336
183.1	13905.132813
183.9	13256.203125
184.7	222.797928
185.3	449.187012
186.1	10149.343750
187.3	5434.127441
188.0	7929.265625
188.8	0.069966
189.6	579.738220
190.9	0.398852
192.0	22453.761719
192.6	3383.851074
193.3	2085.863037
194.2	34233.066406
195.0	2465.659912
196.1	1291.078491
196.6	6478.065918
197.5	38.962372
198.3	4982.768066
199.5	1207.631226
200.3	2886.947266
201.2	1073.742920
202.1	618.824402
203.1	0.312278
203.9	6506.552246
205.1	4409.756836
205.9	1730.570435
206.8	399.500763
208.1	26482.001953
209.2	8902.490234
210.3	2860.857178
211.7	6259.459961
213.0	756.293152
213.8	4395.808105
214.5	3111.239502
216.1	2271.190186
217.1	1031.247314
218.1	1469.186768
218.7	0.206417
219.8	1734.349243
220.7	936.732910
221.9	60332.601563
222.6	53294.933594
223.4	38336.011719
224.1	499455.156250
225.4	52481.203125
226.1	57257.042969
227.2	6883.318359
228.0	32081.400391
229.4	4452.166016
230.3	39172.843750
231.3	4257.312988
232.2	1635.000000
233.3	2751.618408
234.4	2722.564209
235.0	0.053836
235.6	0.062570
236.8	3730.317383
237.4	0.573531
238.3	3620.788330
239.0	1083.041626
239.6	0.268884
240.5	315.534790
242.1	3475.255859
242.8	0.235050
243.5	1849.054199
244.3	3850.072998
245.3	101.964981
246.2	12864.899414
246.9	1108.097290
247.5	0.078050
248.0	0.007506
249.0	5528.117188
249.8	531.665710
250.5	2486.401123
251.2	1723.287842
252.3	3282.827637
253.2	62.086338
254.2	3704.583740
255.1	2464.811523
255.6	696.496887
256.6	757.887634
257.5	0.507820
258.3	265.435852
259.3	217.622833
260.1	863.932617
260.9	0.290307
262.0	1506.723022
262.8	331.537933
263.3	0.042928
264.2	5448.998535
265.2	2572.083496
266.1	43126.050781
266.8	4345.033203
267.4	9133.860352
268.2	3362.137695
268.8	0.016356
269.5	0.015485
270.6	3.089112
271.4	14183.520508
272.0	1375.311279
273.0	2594.916016
273.8	633.644836
274.8	0.083195
275.6	1164.847412
276.3	293.852020
277.0	572.945618
278.1	0.000712
278.9	14885.134766
279.4	19080.658203
280.2	3836.010254
281.1	3548.947266
281.7	6.132417
282.5	351.457733
283.2	2794.559326
284.1	605.494629
285.1	1.859853
286.0	0.126918
286.5	0.082695
287.1	6.876987
288.0	4377.104004
289.1	2516.938965
290.2	0.009309
290.9	1423.962769
292.9	4659.026367
293.9	386.876831
294.9	2572.619629
296.0	4746.174316
297.1	4217.126465
297.9	3432.449951
299.2	2209.494141
299.7	0.205577
300.4	1592.198853
300.9	3400.497559
301.7	1309.148926
302.5	2329.812988
303.2	165.262589
304.4	4711.889648
305.1	4754.488770
306.0	403.725098
307.1	17153.923828
308.4	74.585968
310.2	146.601151
311.1	0.226629
311.7	0.574578
312.4	2691.384766
313.2	3372.244385
315.1	3156.768311
315.7	0.123935
316.8	4409.921875
318.0	5108.095215
318.5	0.141872
319.1	2203.696777
319.9	0.328315
320.5	1439.807617
322.2	72767640.000000
323.3	12679247.000000
324.3	1697494.625000
325.2	186881.265625
326.4	15620.373047
327.8	1134.588013
329.0	9285.482422
329.6	1368.998657
330.2	0.084904
331.2	3652.319580
332.3	1.015202
332.9	0.240734
333.9	3745.461426
334.6	1094.874390
335.2	190.328903
335.7	338.587097
336.4	0.129764
337.3	1737.918701
337.9	5.842201
339.5	8957.463867
340.1	38073.281250
341.3	14246.195313
342.1	1744.123779
342.9	13735.883789
344.2	12431.206055
345.6	2957.052979
346.3	4438.980957
347.3	1309.751587
347.8	4243.617188
348.6	3435.322754
349.2	0.033531
349.9	323.372833
350.9	2283.428467
351.5	218.333176
352.1	3843.076904
353.1	8565.402344
354.2	57344.820313
355.3	12012.914063
356.3	4046.852539
357.9	3145.966064
359.4	22565.119141
360.3	51546.527344
361.1	17438.343750
361.8	2909.138916
363.2	5555417.500000
364.2	1246593.000000
365.2	170648.671875
366.2	22634.740234
366.8	0.428714
367.6	58.408535
368.3	0.030137
368.8	2651.810791
370.2	686.573425
370.8	225.639343
371.6	0.037959
372.5	65.677605
373.4	0.025232
374.4	429.194763
375.3	1780.427979
376.2	2955.326172
377.0	2188.773438
377.7	0.018798
378.6	3109.397949
379.3	7790.944336
380.5	2583.411621
381.3	7099.725098
382.3	2114.409912
383.7	4535.140137
385.2	86130.945313
386.2	23756.767578
386.9	6372.940918
387.4	3071.425781
388.0	158.420563
388.5	309.350281
389.2	10.519594
389.9	0.001100
390.4	5053.377930
391.0	14.739926
391.8	1583.429199
393.1	2108.689209
394.2	4027.196777
394.8	3010.412598
395.4	4223.915039
396.2	0.148278
397.2	5972.751953
398.1	5525.646973
398.9	0.766684
399.5	599.128113
400.5	6956.255859
401.4	2439.448975
402.0	5053.083496
402.9	5334.821289
403.6	6477.217773
404.3	6387.416504
405.1	3389.064209
405.9	688.610901
406.5	2524.955078
407.2	5212.360840
408.3	4582.262207
409.0	420.434174
409.5	1044.780273
410.3	5472.538574
411.2	7200.490234
412.8	788.338074
413.8	353.065887
414.5	0.211594
415.2	53.043144
415.8	0.000009
416.7	1495.174316
417.5	2192.209717
419.4	1872.314941
420.6	6917.114258
421.4	1566.772095
422.0	504.874939
423.1	297.286652
424.0	1905.612915
425.1	56961.117188
426.1	15629.033203
427.1	21877.222656
428.0	4488.794434
428.9	11828.151367
429.5	2543.950439
430.2	87739.343750
431.3	13677.875977
431.9	449.183868
432.4	2788.500732
433.1	2108.640381
434.5	3454.936035
435.1	7787.935059
435.7	1130.931274
436.6	3971.605713
437.8	6152.505859
438.6	4697.618652
439.3	2509.819336
440.3	5295.617188
441.3	2509.250488
441.8	0.488235
443.3	1218.221680
444.5	9815.519531
446.2	11358.357422
447.3	3890.306396
448.3	1105.676147
449.3	3118.261963
450.3	2567.937012
451.1	13490.359375
452.0	13608.652344
453.1	8876.984375
454.4	2172.204102
455.3	3370.194336
456.4	225.317490
457.0	250.125061
457.6	8218.855469
458.5	276.889496
459.0	1818.114136
460.5	272.308228
461.2	21013.234375
462.0	5666.291504
462.6	1727.696289
463.2	16891.275391
464.4	11210.036133
465.0	7736.576660
465.6	4779.129395
467.0	19449.804688
467.7	13706.691406
468.4	6762.634766
469.2	13822.176758
470.3	4008.023438
471.0	6837.520508
472.1	5058.217773
472.6	4497.637695
473.2	6556.344727
474.1	4004.134766
474.7	3376.563232
476.2	9331.399414
477.2	4987.557129
477.9	9203.177734
479.1	3473.321777
480.2	13833.821289
481.4	5957.329102
482.3	2094.816895
483.3	15995.775391
484.0	2429.593506
484.9	4673.403809
485.7	60.331429
486.2	1199.205078
487.0	7004.410156
487.6	4006.475586
488.3	3387.698486
488.9	823.296875
489.6	1536.508911
490.3	4192.679199
491.3	2181.047363
493.0	32236.019531
494.2	29109.720703
495.2	5242.778809
496.3	12098.104492
497.3	3342.348145
497.9	6048.423340
499.2	1695.098755
499.9	5907.728516
500.6	1094.787598
501.2	1451.613281
502.4	5044.229980
503.2	5570.925781
504.2	86289.125000
505.2	28984.453125
506.2	96291.593750
507.3	25991.240234
508.3	55724.488281
508.9	9984.407227
509.4	13135.536133
510.1	15416.004883
510.7	6045.863770
511.4	9494.536133
512.3	11547.014648
513.1	4926.445801
514.5	8550.210938
515.7	2339.718018
517.2	1064.110474
518.0	7361.643066
518.5	3490.996338
519.1	5273.275391
520.0	1704.537720
521.1	3579.859131
522.1	1214.858643
522.7	5644.053711
523.5	82401.148438
524.7	15613.117188
525.7	6226.891602
526.3	10537.775391
527.1	5437.916016
528.0	529.274536
528.7	5463.795898
529.6	3116.132324
530.5	1425.862183
531.4	2053.365967
532.1	3871.323242
533.0	3775.409424
533.6	2681.303223
534.3	21156.441406
535.3	16264.250977
536.4	3679.057373
537.3	8984.723633
538.8	5593.686523
539.6	13636.074219
540.2	1785.518799
541.5	15791.750000
542.2	7006.968750
543.0	9370.241211
543.5	1101.583740
544.6	5262.297852
545.5	439679.750000
546.5	106767.203125
547.4	35484.292969
548.0	6498.685547
549.4	17654.423828
550.3	6669.268066
550.9	3902.778564
551.7	1054.256958
552.2	1897.196167
553.2	10546.628906
554.0	699.919006
555.2	6836.227539
555.9	2478.959473
556.7	5041.102539
557.5	9384.304688
558.2	981.038818
559.2	1887.098267
560.9	23298.976563
561.5	23792.492188
562.4	7488.774414
563.6	4818.280273
564.3	19294.300781
565.2	23698.101563
566.2	2004.765625
567.1	8841.507813
567.7	7913.885254
569.1	12587.732422
570.1	9818.834961
570.7	10.880469
571.2	2605.031250
572.4	4247.038086
573.4	1568.765137
574.4	2058.317383
575.2	2983.903809
576.1	2040.362183
577.4	997.809021
578.5	155.886185
579.4	6110.181152
580.3	4046.811279
581.3	6635.372070
582.3	7015.914063
583.2	15583.925781
583.8	871.293274
584.6	5382.833008
585.4	5911.536621
586.2	1955.545288
586.8	751.578064
587.6	736.425110
588.3	2075.957031
589.2	3297.533203
589.7	571.303711
590.3	1992.107544
591.4	6790.978027
592.3	2319.751465
593.1	5166.272461
593.9	2680.748535
594.9	3306.036621
595.4	4707.166504
596.1	2984.950684
597.4	7327.029297
598.6	2233.751709
599.5	1715.996094
600.8	2088.492432
601.9	2439.519287
603.2	5157.672363
604.1	22689.373047
605.1	8869.209961
605.7	7025.149902
606.9	10259.616211
608.0	5565.351074
609.2	5988.238770
610.1	7896.518066
611.4	5693.765137
612.1	69.511497
613.1	0.341942
614.4	2311.241455
615.3	3481.995850
616.1	4236.793945
617.2	2240.889648
617.8	6548.150391
618.6	3491.770752
619.1	0.213535
619.8	248.789001
621.1	4373.622070
621.9	4342.315430
623.3	14357.303711
624.7	6267.675293
625.6	9382.498047
626.3	5264.582520
627.6	2767.876709
628.3	4387.901367
629.5	2456.464600
630.3	5.892820
631.4	2341.528564
632.2	2212.593018
633.5	10178.344727
634.3	448.010010
635.6	5548.833496
636.4	1822.597656
637.4	7392.938477
638.2	280.153809
639.2	2380.352539
640.3	2379.304688
641.2	9243.450195
642.3	1407.795288
643.0	4186.397949
643.5	4557.738281
644.2	6677.523926
644.8	1251.311157
645.5	2255.460693
646.2	837.805481
647.3	9053.166016
648.0	3311.152832
648.6	0.036244
649.7	1001.734985
651.1	2000.707397
652.6	1624.666016
653.1	8957.260742
654.3	8145.366211
655.1	5695.647949
656.3	2126.501221
658.0	2166.750244
658.8	712.788574
659.3	3406.625732
660.7	335.365997
661.4	1631.662598
662.0	0.260985
662.6	2781.965088
663.3	6448.846191
664.1	5.370376
664.9	3577.375000
665.8	3763.168701
666.4	680.311951
667.3	2434.195801
668.4	2234.748047
669.3	4136.092285
670.1	952.669250
670.9	4317.345703
671.6	2674.404297
672.4	461.284698
673.0	5641.177734
673.7	0.630327
674.4	94.218132
675.5	3259.344482
676.3	0.000024
677.6	3171.852539
678.2	2640.858154
679.2	4250.479492
679.9	4103.775391
680.6	0.196372
681.2	1956.060181
682.4	2869.278809
683.3	3936.241943
684.0	8224.693359
684.5	1714.759766
686.0	1087.497070
687.2	128.847000
688.9	1853.923828
690.2	12305.324219
690.8	2299.558838
691.4	433.877258
692.4	5521.238281
693.3	5116.409668
693.8	977.851501
694.4	363.162476
695.3	13073.350586
696.2	7310.350098
697.1	939.238647
697.7	7194.867188
698.5	2874.151367
699.4	2131.167725
700.0	570.308411
700.8	4.438871
701.4	163.821503
702.4	1362.022827
703.0	3047.834961
703.7	1883.782104
705.3	12204.441406
706.2	1638.682495
707.3	6198.519531
708.5	6567.647461
709.3	4997.407227
710.2	663.079956
711.3	42.775536
712.3	2409.627197
713.5	2352.421387
714.2	1070.266846
714.8	0.070392
715.7	3297.750732
717.0	1276.233521
718.1	5168.195801
719.0	1988.683716
719.7	6507.733398
721.4	7195.441406
722.1	1280.810059
722.9	2308.959717
723.5	3590.738770
724.4	2613.066162
725.3	4416.227539
726.1	4300.416992
727.1	585.453308
728.1	4482.744141
729.1	1142.697998
730.5	4284.046387
731.2	749.016663
731.8	0.000000
732.3	0.000000
733.4	0.061930
734.4	4518.525391
735.1	1.384822
735.6	131.839233
736.4	0.171238
737.3	2917.189453
737.8	2358.430908
738.5	2594.564697
739.5	547.219360
740.3	1887.819458
741.1	2196.065430
742.2	101.335457
743.2	0.000034
744.3	1759.838501
745.2	2412.805908
745.7	3385.320557
746.2	2657.197266
747.1	2740.490723
747.8	0.276987
748.4	100.176208
749.4	3362.798340
750.4	6.163649
751.4	905.676270
751.9	2455.559814
752.6	554.058899
753.3	0.124768
754.1	1845.036987
754.7	0.042154
755.3	1496.352417
756.0	1.235395
756.6	426.627350
757.4	6981.891602
757.9	0.592319
759.0	2519.044678
759.7	1366.139160
761.4	2180.093018
761.9	7422.946777
763.0	0.116847
763.7	0.161840
764.5	534.953918
765.6	516.537292
766.3	894.381531
766.8	0.000000
767.7	627.970886
768.4	1411.546753
769.1	4511.227051
770.0	0.289321
770.6	1345.057739
771.3	768.762329
772.2	0.000000
773.2	176.331421
774.3	304.062622
775.4	375.218292
776.4	2041.050781
777.2	2.173287
778.4	2.495304
779.0	0.186120
779.5	511.458344
780.2	0.373030
781.3	4.897851
782.6	2811.759766
783.6	743.296265
784.5	6191.823242
785.4	6562.092773
786.3	15937.622070
787.2	6863.048828
788.5	10878.057617
789.4	2795.634277
790.4	778.786560
791.3	498.042206
792.1	1394.925781
793.8	0.309360
794.5	409.864960
795.2	1027.814087
796.0	2240.605713
797.0	4230.883789
798.1	3585.460938
798.7	11143.621094
799.3	1210.615845
800.2	1484.440796
800.7	1644.392700
801.2	456.726074
802.0	6.988637
802.9	1017.583923
803.4	667.314819
804.3	0.142138
805.5	0.293215
806.2	3272.443359
807.5	6793.178223
808.3	646.241211
809.3	0.000000
810.2	2.594268
811.6	1839.697510
812.3	0.139654
813.5	151.610046
814.6	60.412300
815.4	0.000000
816.2	379.477753
817.1	605.596497
817.7	125.325195
818.9	2861.337402
819.5	1424.942993
820.4	3637.841797
821.0	280.167816
821.8	610.823364
823.0	0.417649
824.2	4311.835449
824.7	0.649737
826.2	10294.279297
826.9	739.829346
827.7	226.977097
828.8	5.213057
829.3	766.927917
830.4	2169.091553
831.0	0.049093
832.3	4085.145264
833.2	502.251709
834.0	167.161697
834.6	870.942871
835.2	685.268982
836.0	136.995422
837.0	2101.440430
837.7	722.420593
838.7	4609.931152
839.4	0.104566
840.4	4696.808594
841.3	549.076782
842.1	442.439362
842.7	0.156255
843.6	630.253540
844.3	1034.881958
845.4	0.088225
846.1	181.930252
846.7	0.000000
847.6	1170.942261
848.4	5337.214355
849.3	7725.462402
850.7	0.000000
851.5	101.567116
852.0	0.000000
852.6	0.034003
853.2	0.040559
854.6	1424.649536
855.2	0.047452
855.7	281.261780
856.5	0.055542
857.6	1.728871
858.5	973.313049
859.9	0.000003
860.6	1144.407471
861.8	0.175111
862.8	342.436859
863.6	328.792816
864.1	219.292221
865.0	509.046112
865.9	1083.806274
866.4	861.096619
867.1	0.000035
867.8	0.006121
868.5	791.659729
869.0	631.692139
870.2	3156.884766
870.9	9059.932617
872.0	0.154471
872.9	6.044672
874.0	1902.150146
874.8	0.111929
875.4	718.246155
876.2	0.018487
876.7	0.036172
877.3	1139.698120
878.2	0.000000
879.5	1547.695068
880.3	6980.674805
881.5	9855.269531
882.7	1369.240479
883.4	0.000003
884.3	8221.579102
885.4	422.622467
886.3	66.468948
887.2	364.314667
887.9	354.716888
888.5	0.162319
889.1	634.383179
890.0	3734.978760
890.7	0.100141
891.6	2695.886719
892.8	2288.875244
893.9	2222.492432
894.9	1162.767578
895.7	4.698276
896.7	18.746466
897.7	2615.751953
898.3	135.791870
899.2	491.551270
900.5	7.890785
901.2	0.745416
902.3	523.781189
903.2	0.000000
904.4	0.000000
905.3	0.104843
906.3	3294.641357
908.0	7383.225098
909.1	5775.940430
910.1	5136.722656
911.2	2711.939697
911.8	5715.605469
912.9	0.000000
913.5	213.397278
914.3	113.665344
915.2	0.000001
915.7	0.000034
916.3	0.000002
917.2	1776.297729
917.8	2964.670166
918.6	0.000003
919.8	452.148865
920.5	0.000001
921.2	0.000000
922.0	0.013145
922.8	0.000029
923.5	108.123695
924.2	1453.398926
925.6	0.000004
926.6	1857.165283
927.2	106.592697
928.4	18.147636
928.9	0.198162
929.6	1.387246
930.4	0.000032
931.3	0.025422
932.1	0.090366
933.2	0.122761
933.8	0.000000
935.1	1829.022949
936.3	0.000000
937.0	4339.059570
939.2	2811.798096
939.9	1101.353271
940.5	0.000000
941.2	160.080444
942.2	475.402191
942.7	0.000000
943.3	1675.213013
944.1	916.692139
945.2	1711.648315
946.2	0.294226
947.2	0.000000
947.7	277.030853
948.2	520.386292
949.0	0.000000
949.8	1110.509033
951.9	4178.598145
952.5	0.197088
953.6	223.028671
954.2	324.443054
954.9	0.083361
955.7	0.019603
956.7	1714.104492
957.3	0.001414
958.0	0.000000
958.6	0.000006
959.6	0.000018
960.1	0.210062
961.0	692.545776
962.0	2218.522461
962.7	0.000000
963.4	110.971886
963.9	733.037720
965.2	320.578369
966.5	0.000000
967.4	119.979897
968.2	0.004332
968.9	0.000000
969.9	0.136614
970.6	0.000000
971.9	0.125621
972.8	875.790527
973.6	0.035547
974.2	0.006993
975.4	0.000000
975.9	0.008442
977.6	0.024840
978.9	2090.072510
979.6	0.003537
980.3	0.000000
981.0	952.700928
981.8	254.447159
983.2	0.002409
984.7	0.678093
985.7	4268.629395
986.7	0.270481
987.7	0.000003
989.2	288.794769
990.0	1690.578247
991.1	2010.531128
991.8	505.926208
992.9	1414.150391
994.2	324.024658
995.1	2.435177
995.7	0.050537
996.4	0.000001
997.4	0.031185
998.2	756.799927
998.8	0.000000
999.5	0.202098
1000.6	1463.966309
1001.4	0.000000
1002.2	0.019619
1002.9	0.000000
1003.5	0.000000
1004.1	0.044658
1005.0	0.007861
1006.0	0.011199
1007.0	0.069268
1007.6	0.209410
1008.2	0.000001
1009.5	2292.132080
1010.6	371.710999
1011.4	627.985779
1012.3	50.913406
1013.6	368.209351
1014.5	0.017771
1015.2	809.111633
1015.8	0.002766
1016.4	622.348694
1016.9	67.506660
1018.0	0.024523
1018.7	0.000000
1019.3	0.000008
1020.0	0.000014
1021.1	179.503159
1022.3	519.475098
1023.5	1.352132
1024.3	1178.340088
1025.1	0.000000
1026.4	426.749603
1027.4	0.000000
1028.1	0.000000
1029.5	3949.284912
1030.9	21.612682
1032.3	690.701965
1032.8	581.543579
1033.8	1914.667603
1034.4	0.078977
1035.0	142.222549
1036.0	0.000000
1037.5	0.000000
1038.1	0.000000
1038.9	0.003435
1040.2	79.176926
1041.0	0.093884
1041.7	368.237061
1042.3	0.000001
1043.3	0.000000
1043.9	0.000000
1045.6	429.503540
1046.9	235.819977
1047.5	0.000010
1048.5	1799.796875
1049.5	0.178351
1050.2	123.144997
1051.0	1420.351074
1051.8	0.000022
1052.6	0.052465
1053.1	0.026936
1053.7	0.000000
1054.6	0.000017
1055.1	2184.160645
1055.8	240.047562
1056.8	0.730416
1057.5	0.140131
1058.1	0.126498
1058.9	64.896690
1059.5	0.000003
1060.4	4854.617188
1061.4	1918.962158
1062.9	1168.896973
1064.0	679.610168
1064.8	304.947876
1065.8	967.195251
1066.7	870.005249
1067.9	3347.095459
1069.2	1717.435059
1069.8	4860.856445
1070.9	4453.628906
1071.8	1254.926270
1072.5	1305.057007
1073.2	0.009480
1074.2	389.484406
1074.7	254.425934
1076.0	0.088305
1077.3	1247.784912
1077.9	0.000000
1078.7	0.052695
1079.4	322.447693
1080.5	3828.463623
1081.1	0.258956
1081.6	0.000005
1082.1	0.000002
1082.8	0.000000
1083.7	0.000000
1084.8	0.000002
1085.8	0.000000
1086.6	2454.171631
1087.4	0.029919
1088.5	2554.388916
1089.0	525.100098
1090.0	305.642029
1090.7	2881.917480
1091.3	278.784210
1091.8	0.000007
1092.9	42.676521
1094.3	0.135565
1094.9	137.511978
1095.7	0.000000
1096.4	183.621582
1097.6	1007.854065
1098.2	0.007111
1099.4	885.352600
1100.0	529.383667
1100.9	362.601227
1102.1	203.568207
1103.5	1093.012817
1104.1	19.052452
1105.0	0.000000
1106.3	5.419046
1107.8	0.536839
1108.4	92.021973
1109.3	0.000000
1110.2	3222.914307
1110.8	0.207475
1111.8	607.283203
1112.6	0.000001
1113.4	0.000000
1114.2	0.000000
1115.3	0.000000
1116.4	0.150271
1117.3	0.174092
1117.9	0.175763
1118.8	0.228317
1119.4	381.726868
1120.4	3.071936
1121.4	410.914856
1122.1	0.000007
1122.7	2006.352783
1123.4	838.353271
1124.0	0.166082
1125.1	0.404293
1125.7	276.058716
1126.5	0.000020
1127.3	2862.429199
1128.4	0.506223
1129.0	0.000009
1130.3	0.000000
1130.9	0.000000
1131.6	0.000000
1132.5	75.782288
1133.5	0.000000
1134.7	0.000001
1135.7	205.959976
1136.3	0.000000
1137.2	0.245668
1137.8	0.100998
1139.0	0.000000
1139.6	1805.928955
1140.4	0.000005
1141.0	0.000000
1141.5	0.043975
1142.0	0.000000
1142.7	0.000011
1143.7	0.548738
1144.4	0.236879
1145.1	0.000000
1146.6	0.000000
1147.3	0.000000
1148.2	870.707581
1149.2	0.000000
1149.8	0.000000
1150.8	0.000000
1151.8	0.000012
1152.9	0.000000
1153.4	0.000015
1154.2	0.000000
1155.5	6.285452
1156.0	1730.384521
1156.8	162.699203
1158.0	481.732300
1159.4	10123.265625
1159.9	66.342850
1160.8	859.958740
1161.4	111.675713
1162.6	4128.214844
1163.2	0.000002
1163.9	2254.290283
1164.5	0.034346
1165.2	0.000000
1165.7	813.305420
1166.2	6.065819
1166.9	0.000024
1167.6	0.000000
1168.4	0.000000
1169.4	0.032059
1170.0	0.000000
1171.0	0.000000
1171.8	1592.152832
1172.7	0.000003
1173.5	0.000021
1174.5	377.731720
1175.2	260.293671
1176.1	0.597025
1177.4	0.000000
1178.3	3891.771729
1179.1	0.000000
1180.1	0.000000
1180.6	0.000003
1181.2	0.000000
1182.0	0.000009
1182.7	0.000050
1183.5	0.000017
1184.5	795.636169
1185.5	0.000145
1186.1	0.000000
1187.0	5215.417480
1187.7	0.000001
1189.0	1014.927795
1189.6	1291.792236
1190.4	1000.363342
1191.6	0.641390
1192.4	616.312439
1193.2	0.000000
1193.9	0.000000
1194.7	648.240723
1195.3	0.000001
1196.6	996.277283
1197.5	0.412130
1198.8	595.577148
1199.8	3.527920
